9.0	35.25
Integration time [ms]:	1.05
Averaging Nr. [scans]:1
Smoothing Nr. [pixels]:0
Data measured with spectrometer [name]:b'2101207U1'
Wave	;Sample	;Dark	;Reference	;Scope	
[nm]	;[counts]	;[counts]	;[counts]	
 
607,3350219726562;	149,0;	0,0;	0,0
607,4614868164062;	155,5;	0,0;	0,0
607,5878295898438;	142,25;	0,0;	0,0
607,7142944335938;	149,75;	0,0;	0,0
607,8406982421875;	145,25;	0,0;	0,0
607,967041015625;	145,5;	0,0;	0,0
608,0933837890625;	140,75;	0,0;	0,0
608,2197265625;	153,5;	0,0;	0,0
608,3460083007812;	151,75;	0,0;	0,0
608,4723510742188;	144,0;	0,0;	0,0
608,5986328125;	147,75;	0,0;	0,0
608,7249755859375;	150,75;	0,0;	0,0
608,8511352539062;	147,75;	0,0;	0,0
608,9774169921875;	150,75;	0,0;	0,0
609,1036376953125;	138,5;	0,0;	0,0
609,2297973632812;	147,25;	0,0;	0,0
609,3560180664062;	270,75;	0,0;	0,0
609,4822387695312;	294,25;	0,0;	0,0
609,6083374023438;	292,75;	0,0;	0,0
609,7344970703125;	333,25;	0,0;	0,0
609,8606567382812;	376,0;	0,0;	0,0
609,9866943359375;	428,25;	0,0;	0,0
610,11279296875;	561,0;	0,0;	0,0
610,2388916015625;	1080,75;	0,0;	0,0
610,3649291992188;	2986,0;	0,0;	0,0
610,490966796875;	1750,0;	0,0;	0,0
610,6170043945312;	524,0;	0,0;	0,0
610,7430419921875;	399,0;	0,0;	0,0
610,8689575195312;	332,75;	0,0;	0,0
610,9949340820312;	337,0;	0,0;	0,0
611,1209106445312;	288,5;	0,0;	0,0
611,246826171875;	292,0;	0,0;	0,0
611,3727416992188;	268,5;	0,0;	0,0
611,4987182617188;	279,75;	0,0;	0,0
611,6245727539062;	271,0;	0,0;	0,0
611,7504272460938;	249,75;	0,0;	0,0
611,8762817382812;	255,5;	0,0;	0,0
612,0020751953125;	280,25;	0,0;	0,0
612,1279296875;	316,75;	0,0;	0,0
612,2537231445312;	464,0;	0,0;	0,0
612,3794555664062;	330,25;	0,0;	0,0
612,5052490234375;	268,25;	0,0;	0,0
612,6310424804688;	255,5;	0,0;	0,0
612,7567749023438;	248,25;	0,0;	0,0
612,8824462890625;	268,5;	0,0;	0,0
613,0081787109375;	263,0;	0,0;	0,0
613,1339111328125;	264,5;	0,0;	0,0
613,259521484375;	256,75;	0,0;	0,0
613,3851928710938;	258,0;	0,0;	0,0
613,5108642578125;	250,75;	0,0;	0,0
613,6364135742188;	256,0;	0,0;	0,0
613,7620849609375;	262,75;	0,0;	0,0
613,8876953125;	249,25;	0,0;	0,0
614,01318359375;	252,0;	0,0;	0,0
614,1387939453125;	249,25;	0,0;	0,0
614,2643432617188;	263,5;	0,0;	0,0
614,3897705078125;	241,75;	0,0;	0,0
614,5152587890625;	264,5;	0,0;	0,0
614,6408081054688;	256,5;	0,0;	0,0
614,7662963867188;	273,5;	0,0;	0,0
614,8917236328125;	254,75;	0,0;	0,0
615,0171508789062;	243,25;	0,0;	0,0
615,142578125;	242,75;	0,0;	0,0
615,2679443359375;	249,25;	0,0;	0,0
615,3933715820312;	255,25;	0,0;	0,0
615,5187377929688;	266,75;	0,0;	0,0
615,6441040039062;	257,0;	0,0;	0,0
615,7693481445312;	270,25;	0,0;	0,0
615,8947143554688;	265,0;	0,0;	0,0
616,0199584960938;	265,5;	0,0;	0,0
616,145263671875;	363,75;	0,0;	0,0
616,2705688476562;	614,5;	0,0;	0,0
616,3958129882812;	352,0;	0,0;	0,0
616,5210571289062;	263,0;	0,0;	0,0
616,6463012695312;	262,25;	0,0;	0,0
616,771484375;	261,75;	0,0;	0,0
616,8966064453125;	293,25;	0,0;	0,0
617,0217895507812;	310,0;	0,0;	0,0
617,14697265625;	253,0;	0,0;	0,0
617,2720947265625;	249,0;	0,0;	0,0
617,397216796875;	271,75;	0,0;	0,0
617,5222778320312;	258,5;	0,0;	0,0
617,6473388671875;	256,5;	0,0;	0,0
617,7723999023438;	250,0;	0,0;	0,0
617,8975219726562;	258,5;	0,0;	0,0
618,0225219726562;	248,25;	0,0;	0,0
618,1475219726562;	246,75;	0,0;	0,0
618,2725219726562;	256,75;	0,0;	0,0
618,3974609375;	253,5;	0,0;	0,0
618,5224609375;	255,75;	0,0;	0,0
618,6473999023438;	247,0;	0,0;	0,0
618,7723999023438;	247,25;	0,0;	0,0
618,897216796875;	241,25;	0,0;	0,0
619,0221557617188;	260,25;	0,0;	0,0
619,1470336914062;	260,25;	0,0;	0,0
619,2718505859375;	251,0;	0,0;	0,0
619,3966674804688;	225,0;	0,0;	0,0
619,5215454101562;	248,0;	0,0;	0,0
619,6463623046875;	242,5;	0,0;	0,0
619,7711791992188;	250,5;	0,0;	0,0
619,8959350585938;	237,0;	0,0;	0,0
620,0206298828125;	238,5;	0,0;	0,0
620,1454467773438;	248,0;	0,0;	0,0
620,2702026367188;	248,25;	0,0;	0,0
620,394775390625;	243,25;	0,0;	0,0
620,51953125;	256,0;	0,0;	0,0
620,6442260742188;	236,75;	0,0;	0,0
620,7688598632812;	254,0;	0,0;	0,0
620,8934936523438;	239,0;	0,0;	0,0
621,0181274414062;	241,5;	0,0;	0,0
621,1427612304688;	248,0;	0,0;	0,0
621,2672729492188;	246,75;	0,0;	0,0
621,3919067382812;	269,0;	0,0;	0,0
621,5164794921875;	243,0;	0,0;	0,0
621,6409301757812;	239,25;	0,0;	0,0
621,7655029296875;	228,5;	0,0;	0,0
621,8900756835938;	233,75;	0,0;	0,0
622,0144653320312;	232,5;	0,0;	0,0
622,1389770507812;	239,5;	0,0;	0,0
622,2634887695312;	239,5;	0,0;	0,0
622,3878173828125;	240,25;	0,0;	0,0
622,5122680664062;	242,25;	0,0;	0,0
622,6366577148438;	242,75;	0,0;	0,0
622,7611083984375;	233,75;	0,0;	0,0
622,8854370117188;	246,25;	0,0;	0,0
623,009765625;	255,5;	0,0;	0,0
623,1341552734375;	243,0;	0,0;	0,0
623,2584228515625;	234,75;	0,0;	0,0
623,3827514648438;	255,25;	0,0;	0,0
623,507080078125;	251,5;	0,0;	0,0
623,6312866210938;	262,75;	0,0;	0,0
623,7555541992188;	240,5;	0,0;	0,0
623,8797607421875;	258,75;	0,0;	0,0
624,0039672851562;	240,0;	0,0;	0,0
624,128173828125;	242,25;	0,0;	0,0
624,2523803710938;	254,75;	0,0;	0,0
624,37646484375;	254,25;	0,0;	0,0
624,5006713867188;	266,25;	0,0;	0,0
624,624755859375;	257,0;	0,0;	0,0
624,7489624023438;	236,0;	0,0;	0,0
624,8729858398438;	254,75;	0,0;	0,0
624,9970703125;	251,5;	0,0;	0,0
625,1211547851562;	246,0;	0,0;	0,0
625,2451782226562;	268,0;	0,0;	0,0
625,3692016601562;	257,5;	0,0;	0,0
625,4932861328125;	245,25;	0,0;	0,0
625,6171875;	251,75;	0,0;	0,0
625,7412109375;	247,5;	0,0;	0,0
625,8651733398438;	251,0;	0,0;	0,0
625,9890747070312;	262,25;	0,0;	0,0
626,113037109375;	245,0;	0,0;	0,0
626,2369384765625;	247,25;	0,0;	0,0
626,3607788085938;	236,75;	0,0;	0,0
626,4846801757812;	223,0;	0,0;	0,0
626,6085815429688;	244,5;	0,0;	0,0
626,732421875;	243,0;	0,0;	0,0
626,8561401367188;	247,0;	0,0;	0,0
626,9800415039062;	238,75;	0,0;	0,0
627,1038208007812;	232,5;	0,0;	0,0
627,2275390625;	243,75;	0,0;	0,0
627,351318359375;	233,0;	0,0;	0,0
627,4750366210938;	235,5;	0,0;	0,0
627,5986938476562;	237,25;	0,0;	0,0
627,7224731445312;	232,25;	0,0;	0,0
627,84619140625;	231,75;	0,0;	0,0
627,9697875976562;	234,0;	0,0;	0,0
628,093505859375;	236,75;	0,0;	0,0
628,2171020507812;	222,5;	0,0;	0,0
628,3406982421875;	237,0;	0,0;	0,0
628,46435546875;	224,75;	0,0;	0,0
628,5879516601562;	226,5;	0,0;	0,0
628,7114868164062;	213,25;	0,0;	0,0
628,8349609375;	223,25;	0,0;	0,0
628,9585571289062;	223,5;	0,0;	0,0
629,0820922851562;	236,25;	0,0;	0,0
629,20556640625;	233,75;	0,0;	0,0
629,3290405273438;	223,0;	0,0;	0,0
629,4525146484375;	217,0;	0,0;	0,0
629,575927734375;	225,75;	0,0;	0,0
629,6994018554688;	235,5;	0,0;	0,0
629,8228149414062;	229,25;	0,0;	0,0
629,9461669921875;	240,0;	0,0;	0,0
630,0695190429688;	228,0;	0,0;	0,0
630,19287109375;	242,75;	0,0;	0,0
630,316162109375;	232,25;	0,0;	0,0
630,4395751953125;	205,5;	0,0;	0,0
630,5629272460938;	228,5;	0,0;	0,0
630,6862182617188;	231,5;	0,0;	0,0
630,8094482421875;	226,25;	0,0;	0,0
630,9326782226562;	222,5;	0,0;	0,0
631,0559692382812;	223,75;	0,0;	0,0
631,1791381835938;	243,75;	0,0;	0,0
631,3023681640625;	219,75;	0,0;	0,0
631,425537109375;	245,5;	0,0;	0,0
631,5486450195312;	208,25;	0,0;	0,0
631,6718139648438;	236,75;	0,0;	0,0
631,7949829101562;	238,75;	0,0;	0,0
631,9180908203125;	222,25;	0,0;	0,0
632,0411987304688;	222,25;	0,0;	0,0
632,164306640625;	232,5;	0,0;	0,0
632,2872924804688;	228,75;	0,0;	0,0
632,410400390625;	217,25;	0,0;	0,0
632,533447265625;	233,5;	0,0;	0,0
632,656494140625;	248,0;	0,0;	0,0
632,7794189453125;	210,25;	0,0;	0,0
632,9024047851562;	233,25;	0,0;	0,0
633,025390625;	222,5;	0,0;	0,0
633,1483154296875;	206,25;	0,0;	0,0
633,2713012695312;	247,5;	0,0;	0,0
633,3942260742188;	230,0;	0,0;	0,0
633,5170288085938;	216,0;	0,0;	0,0
633,639892578125;	226,75;	0,0;	0,0
633,7628173828125;	227,5;	0,0;	0,0
633,8856201171875;	233,25;	0,0;	0,0
634,0084838867188;	224,5;	0,0;	0,0
634,1312866210938;	244,5;	0,0;	0,0
634,2540283203125;	256,25;	0,0;	0,0
634,3768310546875;	246,75;	0,0;	0,0
634,4995727539062;	279,5;	0,0;	0,0
634,622314453125;	318,75;	0,0;	0,0
634,7449951171875;	331,25;	0,0;	0,0
634,8677368164062;	254,5;	0,0;	0,0
634,9904174804688;	255,25;	0,0;	0,0
635,1130981445312;	237,75;	0,0;	0,0
635,2357177734375;	230,75;	0,0;	0,0
635,3583984375;	233,0;	0,0;	0,0
635,48095703125;	239,75;	0,0;	0,0
635,6035766601562;	231,0;	0,0;	0,0
635,7261962890625;	238,25;	0,0;	0,0
635,8486938476562;	227,75;	0,0;	0,0
635,9712524414062;	213,0;	0,0;	0,0
636,0938110351562;	236,25;	0,0;	0,0
636,21630859375;	238,5;	0,0;	0,0
636,3388061523438;	221,5;	0,0;	0,0
636,4613037109375;	234,25;	0,0;	0,0
636,583740234375;	233,5;	0,0;	0,0
636,7061767578125;	237,5;	0,0;	0,0
636,82861328125;	246,75;	0,0;	0,0
636,9510498046875;	253,75;	0,0;	0,0
637,0734252929688;	258,5;	0,0;	0,0
637,1957397460938;	260,75;	0,0;	0,0
637,3181762695312;	247,25;	0,0;	0,0
637,4404296875;	230,25;	0,0;	0,0
637,5628051757812;	234,75;	0,0;	0,0
637,6851196289062;	229,25;	0,0;	0,0
637,807373046875;	225,25;	0,0;	0,0
637,9296264648438;	228,5;	0,0;	0,0
638,0518798828125;	234,5;	0,0;	0,0
638,1741333007812;	230,75;	0,0;	0,0
638,2963256835938;	233,0;	0,0;	0,0
638,4185791015625;	225,5;	0,0;	0,0
638,5407104492188;	220,75;	0,0;	0,0
638,662841796875;	227,75;	0,0;	0,0
638,7850341796875;	227,75;	0,0;	0,0
638,9071655273438;	217,5;	0,0;	0,0
639,0292358398438;	233,25;	0,0;	0,0
639,1513671875;	218,75;	0,0;	0,0
639,2734375;	233,75;	0,0;	0,0
639,3954467773438;	218,75;	0,0;	0,0
639,517578125;	244,25;	0,0;	0,0
639,6395874023438;	210,5;	0,0;	0,0
639,7615356445312;	231,75;	0,0;	0,0
639,883544921875;	221,75;	0,0;	0,0
640,0055541992188;	209,25;	0,0;	0,0
640,12744140625;	228,0;	0,0;	0,0
640,2493896484375;	201,75;	0,0;	0,0
640,371337890625;	215,75;	0,0;	0,0
640,4932250976562;	227,75;	0,0;	0,0
640,6151733398438;	211,5;	0,0;	0,0
640,7369995117188;	200,0;	0,0;	0,0
640,85888671875;	210,25;	0,0;	0,0
640,9806518554688;	216,25;	0,0;	0,0
641,1024780273438;	225,75;	0,0;	0,0
641,2243041992188;	226,75;	0,0;	0,0
641,3460693359375;	229,0;	0,0;	0,0
641,4678344726562;	219,5;	0,0;	0,0
641,589599609375;	222,5;	0,0;	0,0
641,7112426757812;	214,25;	0,0;	0,0
641,8330078125;	214,75;	0,0;	0,0
641,9547119140625;	216,5;	0,0;	0,0
642,0763549804688;	203,25;	0,0;	0,0
642,197998046875;	209,25;	0,0;	0,0
642,3197021484375;	213,5;	0,0;	0,0
642,4412841796875;	215,75;	0,0;	0,0
642,5628662109375;	216,25;	0,0;	0,0
642,6845092773438;	222,0;	0,0;	0,0
642,8060913085938;	213,0;	0,0;	0,0
642,9276123046875;	221,75;	0,0;	0,0
643,0491943359375;	218,25;	0,0;	0,0
643,1707153320312;	216,0;	0,0;	0,0
643,2921142578125;	218,5;	0,0;	0,0
643,4136352539062;	212,0;	0,0;	0,0
643,5350952148438;	215,25;	0,0;	0,0
643,6565551757812;	226,0;	0,0;	0,0
643,7780151367188;	245,0;	0,0;	0,0
643,8994140625;	439,25;	0,0;	0,0
644,020751953125;	395,5;	0,0;	0,0
644,1421508789062;	238,5;	0,0;	0,0
644,2635498046875;	215,5;	0,0;	0,0
644,3848876953125;	223,5;	0,0;	0,0
644,5061645507812;	225,5;	0,0;	0,0
644,6275024414062;	204,75;	0,0;	0,0
644,748779296875;	229,75;	0,0;	0,0
644,8700561523438;	229,25;	0,0;	0,0
644,9913330078125;	270,75;	0,0;	0,0
645,112548828125;	251,25;	0,0;	0,0
645,2337646484375;	230,75;	0,0;	0,0
645,3549194335938;	234,25;	0,0;	0,0
645,4761962890625;	229,0;	0,0;	0,0
645,5972900390625;	238,25;	0,0;	0,0
645,7184448242188;	245,5;	0,0;	0,0
645,839599609375;	238,75;	0,0;	0,0
645,960693359375;	231,5;	0,0;	0,0
646,081787109375;	256,5;	0,0;	0,0
646,202880859375;	300,5;	0,0;	0,0
646,3238525390625;	417,25;	0,0;	0,0
646,4449462890625;	265,75;	0,0;	0,0
646,5659790039062;	237,75;	0,0;	0,0
646,6870727539062;	237,25;	0,0;	0,0
646,8079833984375;	239,25;	0,0;	0,0
646,928955078125;	239,0;	0,0;	0,0
647,0499877929688;	228,75;	0,0;	0,0
647,1708374023438;	271,75;	0,0;	0,0
647,291748046875;	266,5;	0,0;	0,0
647,4127197265625;	267,5;	0,0;	0,0
647,5335083007812;	245,0;	0,0;	0,0
647,6544189453125;	248,75;	0,0;	0,0
647,7752685546875;	247,25;	0,0;	0,0
647,8961181640625;	255,25;	0,0;	0,0
648,0169067382812;	226,25;	0,0;	0,0
648,1376953125;	254,5;	0,0;	0,0
648,2584838867188;	249,25;	0,0;	0,0
648,3792114257812;	261,0;	0,0;	0,0
648,5;	239,0;	0,0;	0,0
648,6207275390625;	257,0;	0,0;	0,0
648,7413940429688;	255,75;	0,0;	0,0
648,8621215820312;	252,5;	0,0;	0,0
648,9827880859375;	258,0;	0,0;	0,0
649,1033935546875;	267,5;	0,0;	0,0
649,2240600585938;	255,5;	0,0;	0,0
649,3446655273438;	307,75;	0,0;	0,0
649,4652709960938;	338,25;	0,0;	0,0
649,5858764648438;	243,0;	0,0;	0,0
649,7064208984375;	245,25;	0,0;	0,0
649,8269653320312;	253,25;	0,0;	0,0
649,947509765625;	263,25;	0,0;	0,0
650,0680541992188;	256,5;	0,0;	0,0
650,1884765625;	238,0;	0,0;	0,0
650,3090209960938;	245,5;	0,0;	0,0
650,4295043945312;	249,0;	0,0;	0,0
650,5499267578125;	258,5;	0,0;	0,0
650,6702880859375;	247,25;	0,0;	0,0
650,7907104492188;	248,0;	0,0;	0,0
650,9111328125;	244,75;	0,0;	0,0
651,031494140625;	249,5;	0,0;	0,0
651,15185546875;	247,25;	0,0;	0,0
651,2721557617188;	258,5;	0,0;	0,0
651,3924560546875;	248,0;	0,0;	0,0
651,5128173828125;	259,25;	0,0;	0,0
651,633056640625;	258,75;	0,0;	0,0
651,7532958984375;	241,5;	0,0;	0,0
651,8735961914062;	249,75;	0,0;	0,0
651,9937744140625;	243,0;	0,0;	0,0
652,1140747070312;	251,0;	0,0;	0,0
652,2342529296875;	246,25;	0,0;	0,0
652,3543701171875;	250,25;	0,0;	0,0
652,474609375;	243,75;	0,0;	0,0
652,5946655273438;	257,5;	0,0;	0,0
652,71484375;	263,0;	0,0;	0,0
652,8348999023438;	268,5;	0,0;	0,0
652,9550170898438;	268,0;	0,0;	0,0
653,0750732421875;	250,25;	0,0;	0,0
653,1951293945312;	259,25;	0,0;	0,0
653,3151245117188;	280,0;	0,0;	0,0
653,4351196289062;	273,75;	0,0;	0,0
653,55517578125;	264,5;	0,0;	0,0
653,6751098632812;	270,0;	0,0;	0,0
653,7950439453125;	286,5;	0,0;	0,0
653,9150390625;	282,5;	0,0;	0,0
654,034912109375;	298,25;	0,0;	0,0
654,1548461914062;	291,75;	0,0;	0,0
654,2747802734375;	324,5;	0,0;	0,0
654,3946533203125;	315,25;	0,0;	0,0
654,5144653320312;	313,25;	0,0;	0,0
654,63427734375;	306,0;	0,0;	0,0
654,7542114257812;	330,25;	0,0;	0,0
654,8739624023438;	330,25;	0,0;	0,0
654,9937133789062;	341,5;	0,0;	0,0
655,113525390625;	358,0;	0,0;	0,0
655,2332153320312;	367,0;	0,0;	0,0
655,3529663085938;	408,5;	0,0;	0,0
655,47265625;	419,5;	0,0;	0,0
655,5923461914062;	432,25;	0,0;	0,0
655,7120361328125;	437,5;	0,0;	0,0
655,8316650390625;	476,0;	0,0;	0,0
655,9512939453125;	542,75;	0,0;	0,0
656,0709228515625;	567,25;	0,0;	0,0
656,1905517578125;	641,0;	0,0;	0,0
656,3101196289062;	674,75;	0,0;	0,0
656,4296875;	658,5;	0,0;	0,0
656,5492553710938;	638,75;	0,0;	0,0
656,6688232421875;	590,5;	0,0;	0,0
656,788330078125;	550,5;	0,0;	0,0
656,9077758789062;	530,75;	0,0;	0,0
657,0272827148438;	495,75;	0,0;	0,0
657,146728515625;	454,25;	0,0;	0,0
657,2661743164062;	421,25;	0,0;	0,0
657,3856811523438;	393,75;	0,0;	0,0
657,5050048828125;	401,75;	0,0;	0,0
657,6243896484375;	394,25;	0,0;	0,0
657,7438354492188;	376,5;	0,0;	0,0
657,8630981445312;	357,5;	0,0;	0,0
657,9824829101562;	349,75;	0,0;	0,0
658,101806640625;	334,25;	0,0;	0,0
658,2211303710938;	336,5;	0,0;	0,0
658,3403930664062;	312,75;	0,0;	0,0
658,4596557617188;	313,25;	0,0;	0,0
658,5789184570312;	314,25;	0,0;	0,0
658,6980590820312;	293,0;	0,0;	0,0
658,8173217773438;	292,75;	0,0;	0,0
658,9365234375;	302,75;	0,0;	0,0
659,0556640625;	294,0;	0,0;	0,0
659,1748657226562;	271,0;	0,0;	0,0
659,2940063476562;	279,5;	0,0;	0,0
659,4130859375;	286,75;	0,0;	0,0
659,5321655273438;	309,75;	0,0;	0,0
659,6513061523438;	276,5;	0,0;	0,0
659,7703247070312;	284,0;	0,0;	0,0
659,889404296875;	270,25;	0,0;	0,0
660,0084228515625;	267,75;	0,0;	0,0
660,12744140625;	263,25;	0,0;	0,0
660,2464599609375;	272,75;	0,0;	0,0
660,3654174804688;	265,5;	0,0;	0,0
660,484375;	264,5;	0,0;	0,0
660,603271484375;	257,25;	0,0;	0,0
660,7222900390625;	281,0;	0,0;	0,0
660,8411865234375;	272,75;	0,0;	0,0
660,9600219726562;	271,75;	0,0;	0,0
661,0789184570312;	259,75;	0,0;	0,0
661,19775390625;	243,0;	0,0;	0,0
661,3165893554688;	255,0;	0,0;	0,0
661,4354248046875;	251,25;	0,0;	0,0
661,55419921875;	246,25;	0,0;	0,0
661,6729736328125;	252,75;	0,0;	0,0
661,791748046875;	258,0;	0,0;	0,0
661,9105224609375;	246,5;	0,0;	0,0
662,0292358398438;	226,0;	0,0;	0,0
662,1478881835938;	238,0;	0,0;	0,0
662,2666015625;	235,75;	0,0;	0,0
662,3853149414062;	224,0;	0,0;	0,0
662,50390625;	242,25;	0,0;	0,0
662,62255859375;	233,5;	0,0;	0,0
662,7411499023438;	235,5;	0,0;	0,0
662,8597412109375;	236,25;	0,0;	0,0
662,9783325195312;	236,5;	0,0;	0,0
663,096923828125;	244,0;	0,0;	0,0
663,2153930664062;	244,25;	0,0;	0,0
663,333984375;	234,25;	0,0;	0,0
663,4524536132812;	238,5;	0,0;	0,0
663,5709228515625;	223,25;	0,0;	0,0
663,6893920898438;	237,0;	0,0;	0,0
663,8079223632812;	250,0;	0,0;	0,0
663,9263305664062;	230,0;	0,0;	0,0
664,0447387695312;	238,25;	0,0;	0,0
664,1631469726562;	226,5;	0,0;	0,0
664,2815551757812;	231,0;	0,0;	0,0
664,3998413085938;	235,5;	0,0;	0,0
664,5182495117188;	233,0;	0,0;	0,0
664,6365966796875;	213,0;	0,0;	0,0
664,7548217773438;	226,75;	0,0;	0,0
664,8731689453125;	237,5;	0,0;	0,0
664,991455078125;	233,75;	0,0;	0,0
665,1096801757812;	224,5;	0,0;	0,0
665,2279663085938;	228,5;	0,0;	0,0
665,34619140625;	227,25;	0,0;	0,0
665,4642944335938;	239,75;	0,0;	0,0
665,58251953125;	238,75;	0,0;	0,0
665,70068359375;	230,25;	0,0;	0,0
665,81884765625;	248,75;	0,0;	0,0
665,9369506835938;	239,0;	0,0;	0,0
666,0551147460938;	239,25;	0,0;	0,0
666,1732177734375;	244,75;	0,0;	0,0
666,291259765625;	233,5;	0,0;	0,0
666,4093017578125;	236,25;	0,0;	0,0
666,5274047851562;	231,5;	0,0;	0,0
666,6453857421875;	239,5;	0,0;	0,0
666,7633056640625;	236,25;	0,0;	0,0
666,88134765625;	226,75;	0,0;	0,0
666,999267578125;	226,0;	0,0;	0,0
667,1172485351562;	227,25;	0,0;	0,0
667,2351684570312;	233,75;	0,0;	0,0
667,3530883789062;	232,5;	0,0;	0,0
667,470947265625;	231,25;	0,0;	0,0
667,5888671875;	232,0;	0,0;	0,0
667,7066650390625;	225,5;	0,0;	0,0
667,8245239257812;	233,75;	0,0;	0,0
667,9423217773438;	228,25;	0,0;	0,0
668,0601806640625;	228,5;	0,0;	0,0
668,177978515625;	232,5;	0,0;	0,0
668,2957153320312;	223,75;	0,0;	0,0
668,4135131835938;	233,75;	0,0;	0,0
668,5311279296875;	233,0;	0,0;	0,0
668,64892578125;	210,75;	0,0;	0,0
668,7666015625;	232,75;	0,0;	0,0
668,8842163085938;	228,25;	0,0;	0,0
669,0018920898438;	237,75;	0,0;	0,0
669,1195678710938;	223,5;	0,0;	0,0
669,2371215820312;	239,75;	0,0;	0,0
669,354736328125;	242,75;	0,0;	0,0
669,4723510742188;	233,5;	0,0;	0,0
669,5899658203125;	260,25;	0,0;	0,0
669,7073974609375;	238,75;	0,0;	0,0
669,824951171875;	253,75;	0,0;	0,0
669,9424438476562;	276,25;	0,0;	0,0
670,0599365234375;	288,75;	0,0;	0,0
670,1774291992188;	335,0;	0,0;	0,0
670,294921875;	386,75;	0,0;	0,0
670,4122924804688;	511,25;	0,0;	0,0
670,5297241210938;	797,5;	0,0;	0,0
670,647216796875;	1820,75;	0,0;	0,0
670,7645263671875;	5057,5;	0,0;	0,0
670,8818969726562;	4432,25;	0,0;	0,0
670,999267578125;	1436,5;	0,0;	0,0
671,1165771484375;	679,25;	0,0;	0,0
671,2338256835938;	463,75;	0,0;	0,0
671,3511352539062;	377,75;	0,0;	0,0
671,4683837890625;	323,5;	0,0;	0,0
671,585693359375;	288,75;	0,0;	0,0
671,7029418945312;	306,5;	0,0;	0,0
671,8201904296875;	292,25;	0,0;	0,0
671,9373779296875;	281,75;	0,0;	0,0
672,0545043945312;	259,75;	0,0;	0,0
672,1716918945312;	248,25;	0,0;	0,0
672,288818359375;	253,75;	0,0;	0,0
672,4059448242188;	242,5;	0,0;	0,0
672,5230712890625;	223,75;	0,0;	0,0
672,64013671875;	228,75;	0,0;	0,0
672,7572021484375;	236,0;	0,0;	0,0
672,8743286132812;	221,25;	0,0;	0,0
672,9912719726562;	222,25;	0,0;	0,0
673,1083374023438;	213,25;	0,0;	0,0
673,225341796875;	225,75;	0,0;	0,0
673,3423461914062;	225,0;	0,0;	0,0
673,459228515625;	231,0;	0,0;	0,0
673,576171875;	235,5;	0,0;	0,0
673,693115234375;	223,0;	0,0;	0,0
673,8099975585938;	231,25;	0,0;	0,0
673,9268798828125;	229,5;	0,0;	0,0
674,0438232421875;	217,0;	0,0;	0,0
674,16064453125;	214,75;	0,0;	0,0
674,2774658203125;	209,5;	0,0;	0,0
674,394287109375;	225,0;	0,0;	0,0
674,5110473632812;	218,75;	0,0;	0,0
674,6278686523438;	221,5;	0,0;	0,0
674,74462890625;	204,75;	0,0;	0,0
674,861328125;	209,75;	0,0;	0,0
674,9780883789062;	210,5;	0,0;	0,0
675,0947875976562;	215,25;	0,0;	0,0
675,21142578125;	209,75;	0,0;	0,0
675,328125;	218,25;	0,0;	0,0
675,44482421875;	204,25;	0,0;	0,0
675,5614624023438;	203,25;	0,0;	0,0
675,677978515625;	205,5;	0,0;	0,0
675,7946166992188;	208,25;	0,0;	0,0
675,9111938476562;	212,5;	0,0;	0,0
676,0277099609375;	207,5;	0,0;	0,0
676,144287109375;	206,5;	0,0;	0,0
676,2608032226562;	197,75;	0,0;	0,0
676,3772583007812;	200,5;	0,0;	0,0
676,4937744140625;	201,75;	0,0;	0,0
676,6102294921875;	214,75;	0,0;	0,0
676,7266845703125;	207,25;	0,0;	0,0
676,8431396484375;	222,75;	0,0;	0,0
676,9595336914062;	213,75;	0,0;	0,0
677,0759887695312;	212,75;	0,0;	0,0
677,1922607421875;	216,75;	0,0;	0,0
677,3086547851562;	206,0;	0,0;	0,0
677,4249267578125;	199,75;	0,0;	0,0
677,541259765625;	212,75;	0,0;	0,0
677,6575927734375;	196,25;	0,0;	0,0
677,7738647460938;	198,75;	0,0;	0,0
677,8900756835938;	212,0;	0,0;	0,0
678,0064086914062;	196,75;	0,0;	0,0
678,1226196289062;	199,25;	0,0;	0,0
678,23876953125;	195,0;	0,0;	0,0
678,35498046875;	204,75;	0,0;	0,0
678,47119140625;	193,0;	0,0;	0,0
678,5872802734375;	199,75;	0,0;	0,0
678,7034301757812;	207,0;	0,0;	0,0
678,819580078125;	210,5;	0,0;	0,0
678,9356079101562;	199,75;	0,0;	0,0
679,0516967773438;	207,5;	0,0;	0,0
679,1677856445312;	213,75;	0,0;	0,0
679,2838745117188;	207,0;	0,0;	0,0
679,3998413085938;	209,75;	0,0;	0,0
679,515869140625;	197,75;	0,0;	0,0
679,6318969726562;	202,25;	0,0;	0,0
679,7477416992188;	205,75;	0,0;	0,0
679,8637084960938;	211,0;	0,0;	0,0
679,9796752929688;	203,75;	0,0;	0,0
680,0955810546875;	199,75;	0,0;	0,0
680,21142578125;	206,5;	0,0;	0,0
680,3273315429688;	200,75;	0,0;	0,0
680,4431762695312;	201,0;	0,0;	0,0
680,5590209960938;	208,25;	0,0;	0,0
680,6748657226562;	205,25;	0,0;	0,0
680,7906494140625;	209,75;	0,0;	0,0
680,9064331054688;	197,75;	0,0;	0,0
681,0221557617188;	203,5;	0,0;	0,0
681,137939453125;	207,0;	0,0;	0,0
681,2536010742188;	196,0;	0,0;	0,0
681,369384765625;	202,25;	0,0;	0,0
681,4850463867188;	206,75;	0,0;	0,0
681,6007080078125;	205,25;	0,0;	0,0
681,7163696289062;	197,5;	0,0;	0,0
681,83203125;	218,0;	0,0;	0,0
681,9475708007812;	200,5;	0,0;	0,0
682,0631713867188;	204,75;	0,0;	0,0
682,1787719726562;	193,5;	0,0;	0,0
682,2943115234375;	213,75;	0,0;	0,0
682,409912109375;	220,0;	0,0;	0,0
682,5254516601562;	209,25;	0,0;	0,0
682,640869140625;	196,75;	0,0;	0,0
682,7564086914062;	202,25;	0,0;	0,0
682,8718872070312;	215,75;	0,0;	0,0
682,9873657226562;	216,0;	0,0;	0,0
683,1027221679688;	203,0;	0,0;	0,0
683,2181396484375;	209,25;	0,0;	0,0
683,33349609375;	209,0;	0,0;	0,0
683,4488525390625;	212,25;	0,0;	0,0
683,5642700195312;	206,0;	0,0;	0,0
683,6796264648438;	201,0;	0,0;	0,0
683,7948608398438;	209,0;	0,0;	0,0
683,91015625;	182,0;	0,0;	0,0
684,0255126953125;	200,0;	0,0;	0,0
684,1406860351562;	204,5;	0,0;	0,0
684,2559814453125;	210,0;	0,0;	0,0
684,3712158203125;	216,0;	0,0;	0,0
684,4864501953125;	213,0;	0,0;	0,0
684,6016235351562;	204,5;	0,0;	0,0
684,7167358398438;	195,25;	0,0;	0,0
684,8318481445312;	192,5;	0,0;	0,0
684,947021484375;	197,0;	0,0;	0,0
685,0621337890625;	215,0;	0,0;	0,0
685,1773071289062;	195,75;	0,0;	0,0
685,2922973632812;	199,5;	0,0;	0,0
685,4073486328125;	201,25;	0,0;	0,0
685,5223999023438;	211,0;	0,0;	0,0
685,637451171875;	209,5;	0,0;	0,0
685,75244140625;	204,25;	0,0;	0,0
685,867431640625;	202,75;	0,0;	0,0
685,9823608398438;	199,5;	0,0;	0,0
686,0972900390625;	195,5;	0,0;	0,0
686,2122192382812;	211,75;	0,0;	0,0
686,3270874023438;	199,5;	0,0;	0,0
686,4420166015625;	192,75;	0,0;	0,0
686,556884765625;	204,75;	0,0;	0,0
686,6717529296875;	193,25;	0,0;	0,0
686,7865600585938;	202,75;	0,0;	0,0
686,9013671875;	200,75;	0,0;	0,0
687,0161743164062;	199,25;	0,0;	0,0
687,1309204101562;	205,25;	0,0;	0,0
687,2457275390625;	204,5;	0,0;	0,0
687,3604125976562;	195,25;	0,0;	0,0
687,4751586914062;	189,25;	0,0;	0,0
687,5899047851562;	198,5;	0,0;	0,0
687,7045288085938;	202,5;	0,0;	0,0
687,8192138671875;	196,25;	0,0;	0,0
687,933837890625;	204,5;	0,0;	0,0
688,0485229492188;	213,0;	0,0;	0,0
688,1630859375;	205,75;	0,0;	0,0
688,2776489257812;	195,75;	0,0;	0,0
688,3922119140625;	177,0;	0,0;	0,0
688,5067138671875;	208,75;	0,0;	0,0
688,621337890625;	200,0;	0,0;	0,0
688,73583984375;	203,75;	0,0;	0,0
688,850341796875;	206,75;	0,0;	0,0
688,9647216796875;	201,5;	0,0;	0,0
689,0792236328125;	206,75;	0,0;	0,0
689,1937255859375;	210,0;	0,0;	0,0
689,30810546875;	183,75;	0,0;	0,0
689,4224853515625;	196,75;	0,0;	0,0
689,5369262695312;	198,75;	0,0;	0,0
689,6512451171875;	192,25;	0,0;	0,0
689,7655639648438;	198,5;	0,0;	0,0
689,8799438476562;	188,75;	0,0;	0,0
689,9942016601562;	205,75;	0,0;	0,0
690,1084594726562;	194,75;	0,0;	0,0
690,2227783203125;	193,0;	0,0;	0,0
690,3370361328125;	207,75;	0,0;	0,0
690,4512329101562;	189,75;	0,0;	0,0
690,5654296875;	200,25;	0,0;	0,0
690,6796875;	197,25;	0,0;	0,0
690,7938232421875;	202,5;	0,0;	0,0
690,907958984375;	191,75;	0,0;	0,0
691,0221557617188;	198,75;	0,0;	0,0
691,1361694335938;	196,0;	0,0;	0,0
691,2503662109375;	179,0;	0,0;	0,0
691,3643798828125;	201,75;	0,0;	0,0
691,4784545898438;	214,25;	0,0;	0,0
691,592529296875;	206,75;	0,0;	0,0
691,7066040039062;	208,0;	0,0;	0,0
691,8206176757812;	194,5;	0,0;	0,0
691,9345092773438;	191,75;	0,0;	0,0
692,0484619140625;	196,0;	0,0;	0,0
692,1624145507812;	199,25;	0,0;	0,0
692,2763671875;	193,5;	0,0;	0,0
692,3903198242188;	204,75;	0,0;	0,0
692,5042114257812;	194,25;	0,0;	0,0
692,6180419921875;	204,5;	0,0;	0,0
692,73193359375;	200,0;	0,0;	0,0
692,8457641601562;	204,75;	0,0;	0,0
692,9595336914062;	194,75;	0,0;	0,0
693,0733642578125;	194,5;	0,0;	0,0
693,1871948242188;	203,25;	0,0;	0,0
693,3009033203125;	203,5;	0,0;	0,0
693,4146118164062;	201,25;	0,0;	0,0
693,5283813476562;	206,25;	0,0;	0,0
693,6420288085938;	201,25;	0,0;	0,0
693,7557373046875;	202,0;	0,0;	0,0
693,869384765625;	216,75;	0,0;	0,0
693,9830932617188;	203,5;	0,0;	0,0
694,0966186523438;	207,0;	0,0;	0,0
694,2102661132812;	209,0;	0,0;	0,0
694,3238525390625;	207,0;	0,0;	0,0
694,4374389648438;	202,75;	0,0;	0,0
694,5509643554688;	206,75;	0,0;	0,0
694,66455078125;	205,0;	0,0;	0,0
694,7780151367188;	202,5;	0,0;	0,0
694,8915405273438;	197,0;	0,0;	0,0
695,0050659179688;	214,75;	0,0;	0,0
695,1184692382812;	206,75;	0,0;	0,0
695,2318725585938;	207,0;	0,0;	0,0
695,3453369140625;	213,25;	0,0;	0,0
695,458740234375;	199,5;	0,0;	0,0
695,5721435546875;	200,25;	0,0;	0,0
695,6854858398438;	215,25;	0,0;	0,0
695,798828125;	202,5;	0,0;	0,0
695,9121704101562;	212,0;	0,0;	0,0
696,0254516601562;	200,75;	0,0;	0,0
696,1387329101562;	198,0;	0,0;	0,0
696,251953125;	210,5;	0,0;	0,0
696,365234375;	206,25;	0,0;	0,0
696,478515625;	204,0;	0,0;	0,0
696,5916748046875;	206,75;	0,0;	0,0
696,704833984375;	212,0;	0,0;	0,0
696,8180541992188;	225,25;	0,0;	0,0
696,9312133789062;	215,0;	0,0;	0,0
697,0443115234375;	196,0;	0,0;	0,0
697,157470703125;	210,75;	0,0;	0,0
697,2705078125;	207,5;	0,0;	0,0
697,3836669921875;	197,0;	0,0;	0,0
697,4967041015625;	205,0;	0,0;	0,0
697,6098022460938;	206,5;	0,0;	0,0
697,7227172851562;	203,75;	0,0;	0,0
697,8357543945312;	207,25;	0,0;	0,0
697,9487915039062;	201,5;	0,0;	0,0
698,0617065429688;	218,5;	0,0;	0,0
698,1746215820312;	205,75;	0,0;	0,0
698,28759765625;	205,75;	0,0;	0,0
698,4004516601562;	203,5;	0,0;	0,0
698,5133666992188;	198,25;	0,0;	0,0
698,626220703125;	205,25;	0,0;	0,0
698,739013671875;	216,25;	0,0;	0,0
698,8518676757812;	204,25;	0,0;	0,0
698,9647216796875;	204,75;	0,0;	0,0
699,0775146484375;	211,5;	0,0;	0,0
699,1902465820312;	197,5;	0,0;	0,0
699,3030395507812;	205,5;	0,0;	0,0
699,415771484375;	216,0;	0,0;	0,0
699,5284423828125;	207,75;	0,0;	0,0
699,6411743164062;	205,25;	0,0;	0,0
699,75390625;	208,25;	0,0;	0,0
699,8665161132812;	209,75;	0,0;	0,0
699,9791870117188;	204,0;	0,0;	0,0
700,091796875;	208,75;	0,0;	0,0
700,204345703125;	196,0;	0,0;	0,0
700,3169555664062;	208,5;	0,0;	0,0
700,4295654296875;	212,75;	0,0;	0,0
700,5420532226562;	214,5;	0,0;	0,0
700,6546630859375;	206,25;	0,0;	0,0
700,7671508789062;	202,5;	0,0;	0,0
700,8795776367188;	203,75;	0,0;	0,0
700,9920654296875;	214,25;	0,0;	0,0
701,1044921875;	222,25;	0,0;	0,0
701,2169799804688;	197,0;	0,0;	0,0
701,329345703125;	202,75;	0,0;	0,0
701,4417724609375;	201,25;	0,0;	0,0
701,5541381835938;	208,0;	0,0;	0,0
701,66650390625;	199,0;	0,0;	0,0
701,7788696289062;	208,5;	0,0;	0,0
701,8911743164062;	197,25;	0,0;	0,0
702,0033569335938;	219,5;	0,0;	0,0
702,11572265625;	212,0;	0,0;	0,0
702,2279663085938;	200,5;	0,0;	0,0
702,3402099609375;	206,75;	0,0;	0,0
702,452392578125;	214,5;	0,0;	0,0
702,5646362304688;	221,25;	0,0;	0,0
702,6768188476562;	205,0;	0,0;	0,0
702,7889404296875;	207,25;	0,0;	0,0
702,901123046875;	203,75;	0,0;	0,0
703,01318359375;	207,25;	0,0;	0,0
703,1253662109375;	190,0;	0,0;	0,0
703,2374267578125;	205,5;	0,0;	0,0
703,3494873046875;	205,5;	0,0;	0,0
703,4615478515625;	206,75;	0,0;	0,0
703,5735473632812;	205,0;	0,0;	0,0
703,6856079101562;	212,0;	0,0;	0,0
703,7975463867188;	211,25;	0,0;	0,0
703,9095458984375;	217,75;	0,0;	0,0
704,0215454101562;	217,75;	0,0;	0,0
704,1334228515625;	224,0;	0,0;	0,0
704,245361328125;	223,0;	0,0;	0,0
704,3572387695312;	204,5;	0,0;	0,0
704,4691162109375;	197,25;	0,0;	0,0
704,5809936523438;	196,25;	0,0;	0,0
704,6928100585938;	202,0;	0,0;	0,0
704,8046264648438;	207,5;	0,0;	0,0
704,9163818359375;	200,25;	0,0;	0,0
705,0281982421875;	200,0;	0,0;	0,0
705,139892578125;	202,0;	0,0;	0,0
705,2516479492188;	203,0;	0,0;	0,0
705,3634643554688;	208,25;	0,0;	0,0
705,4751586914062;	195,5;	0,0;	0,0
705,5867919921875;	217,5;	0,0;	0,0
705,6984252929688;	205,5;	0,0;	0,0
705,8101806640625;	203,0;	0,0;	0,0
705,9216918945312;	213,0;	0,0;	0,0
706,0333251953125;	209,25;	0,0;	0,0
706,1449584960938;	204,25;	0,0;	0,0
706,2564697265625;	202,25;	0,0;	0,0
706,3680419921875;	199,0;	0,0;	0,0
706,4795532226562;	211,0;	0,0;	0,0
706,5910034179688;	210,5;	0,0;	0,0
706,7025756835938;	208,0;	0,0;	0,0
706,8140869140625;	206,5;	0,0;	0,0
706,925537109375;	209,5;	0,0;	0,0
707,0369262695312;	200,5;	0,0;	0,0
707,1483154296875;	202,25;	0,0;	0,0
707,259765625;	196,0;	0,0;	0,0
707,37109375;	201,75;	0,0;	0,0
707,4824829101562;	194,75;	0,0;	0,0
707,5938720703125;	195,25;	0,0;	0,0
707,705078125;	185,5;	0,0;	0,0
707,81640625;	190,5;	0,0;	0,0
707,927734375;	191,25;	0,0;	0,0
708,0389404296875;	186,25;	0,0;	0,0
708,1502075195312;	196,0;	0,0;	0,0
708,2614135742188;	211,25;	0,0;	0,0
708,3726806640625;	196,25;	0,0;	0,0
708,4837646484375;	199,0;	0,0;	0,0
708,594970703125;	212,5;	0,0;	0,0
708,7061157226562;	201,5;	0,0;	0,0
708,8171997070312;	193,5;	0,0;	0,0
708,9283447265625;	201,5;	0,0;	0,0
709,0394287109375;	191,0;	0,0;	0,0
709,1504516601562;	202,75;	0,0;	0,0
709,2615356445312;	198,25;	0,0;	0,0
709,3726196289062;	200,75;	0,0;	0,0
709,4835815429688;	188,25;	0,0;	0,0
709,5946044921875;	194,0;	0,0;	0,0
709,7055053710938;	192,25;	0,0;	0,0
709,81640625;	197,5;	0,0;	0,0
709,9273681640625;	188,25;	0,0;	0,0
710,038330078125;	194,5;	0,0;	0,0
710,1492309570312;	188,5;	0,0;	0,0
710,2600708007812;	192,5;	0,0;	0,0
710,3709716796875;	181,75;	0,0;	0,0
710,4818115234375;	190,0;	0,0;	0,0
710,5925903320312;	186,25;	0,0;	0,0
710,7034301757812;	192,75;	0,0;	0,0
710,8141479492188;	197,75;	0,0;	0,0
710,9249267578125;	185,75;	0,0;	0,0
711,03564453125;	191,0;	0,0;	0,0
711,1463623046875;	190,0;	0,0;	0,0
711,2570190429688;	193,25;	0,0;	0,0
711,3677368164062;	205,75;	0,0;	0,0
711,4784545898438;	194,25;	0,0;	0,0
711,5889892578125;	197,5;	0,0;	0,0
711,6996459960938;	198,0;	0,0;	0,0
711,8102416992188;	191,0;	0,0;	0,0
711,9208374023438;	214,25;	0,0;	0,0
712,0313720703125;	193,5;	0,0;	0,0
712,1419677734375;	195,25;	0,0;	0,0
712,25244140625;	198,0;	0,0;	0,0
712,3629760742188;	200,5;	0,0;	0,0
712,4735107421875;	199,0;	0,0;	0,0
712,5839233398438;	197,75;	0,0;	0,0
712,6943359375;	198,0;	0,0;	0,0
712,8048095703125;	191,5;	0,0;	0,0
712,9152221679688;	197,25;	0,0;	0,0
713,0255737304688;	197,0;	0,0;	0,0
713,1359252929688;	182,75;	0,0;	0,0
713,246337890625;	190,0;	0,0;	0,0
713,3566284179688;	202,25;	0,0;	0,0
713,4669799804688;	211,0;	0,0;	0,0
713,5772705078125;	191,0;	0,0;	0,0
713,6875;	204,25;	0,0;	0,0
713,7977294921875;	205,0;	0,0;	0,0
713,9080200195312;	201,5;	0,0;	0,0
714,0182495117188;	201,0;	0,0;	0,0
714,12841796875;	208,0;	0,0;	0,0
714,2385864257812;	194,5;	0,0;	0,0
714,3487548828125;	212,0;	0,0;	0,0
714,4588623046875;	196,25;	0,0;	0,0
714,5690307617188;	212,5;	0,0;	0,0
714,6791381835938;	214,5;	0,0;	0,0
714,7891235351562;	318,75;	0,0;	0,0
714,8992309570312;	261,5;	0,0;	0,0
715,00927734375;	211,0;	0,0;	0,0
715,1192626953125;	199,25;	0,0;	0,0
715,229248046875;	205,25;	0,0;	0,0
715,3392944335938;	208,25;	0,0;	0,0
715,44921875;	207,75;	0,0;	0,0
715,5591430664062;	226,5;	0,0;	0,0
715,6690673828125;	255,5;	0,0;	0,0
715,7789916992188;	278,5;	0,0;	0,0
715,8888549804688;	258,0;	0,0;	0,0
715,9987182617188;	236,75;	0,0;	0,0
716,108642578125;	221,75;	0,0;	0,0
716,2183837890625;	216,75;	0,0;	0,0
716,3281860351562;	216,25;	0,0;	0,0
716,43798828125;	203,5;	0,0;	0,0
716,5477294921875;	208,75;	0,0;	0,0
716,657470703125;	207,75;	0,0;	0,0
716,7672119140625;	210,75;	0,0;	0,0
716,8768920898438;	212,5;	0,0;	0,0
716,9866333007812;	204,75;	0,0;	0,0
717,0963134765625;	206,25;	0,0;	0,0
717,2058715820312;	202,25;	0,0;	0,0
717,3155517578125;	189,75;	0,0;	0,0
717,4251708984375;	205,25;	0,0;	0,0
717,5347290039062;	195,25;	0,0;	0,0
717,644287109375;	210,0;	0,0;	0,0
717,75390625;	200,5;	0,0;	0,0
717,8634033203125;	201,25;	0,0;	0,0
717,9728393554688;	197,0;	0,0;	0,0
718,0823974609375;	195,0;	0,0;	0,0
718,19189453125;	203,5;	0,0;	0,0
718,30126953125;	198,25;	0,0;	0,0
718,4107666015625;	195,5;	0,0;	0,0
718,5202026367188;	199,5;	0,0;	0,0
718,6295166015625;	204,0;	0,0;	0,0
718,7388916015625;	202,25;	0,0;	0,0
718,8482666015625;	202,5;	0,0;	0,0
718,9576416015625;	194,75;	0,0;	0,0
719,06689453125;	209,25;	0,0;	0,0
719,1762084960938;	202,5;	0,0;	0,0
719,2854614257812;	203,5;	0,0;	0,0
719,394775390625;	200,75;	0,0;	0,0
719,5039672851562;	195,25;	0,0;	0,0
719,6132202148438;	201,0;	0,0;	0,0
719,722412109375;	189,75;	0,0;	0,0
719,83154296875;	203,75;	0,0;	0,0
719,9407348632812;	205,75;	0,0;	0,0
720,0498657226562;	193,0;	0,0;	0,0
720,1589965820312;	243,0;	0,0;	0,0
720,26806640625;	239,75;	0,0;	0,0
720,3771362304688;	208,75;	0,0;	0,0
720,4862060546875;	187,25;	0,0;	0,0
720,5952758789062;	199,0;	0,0;	0,0
720,7042846679688;	198,5;	0,0;	0,0
720,8132934570312;	208,25;	0,0;	0,0
720,9223022460938;	197,75;	0,0;	0,0
721,03125;	193,5;	0,0;	0,0
721,14013671875;	192,0;	0,0;	0,0
721,2490844726562;	197,75;	0,0;	0,0
721,3580322265625;	197,0;	0,0;	0,0
721,4668579101562;	201,75;	0,0;	0,0
721,57568359375;	201,75;	0,0;	0,0
721,6845703125;	195,5;	0,0;	0,0
721,7933959960938;	207,25;	0,0;	0,0
721,9022216796875;	194,0;	0,0;	0,0
722,010986328125;	202,25;	0,0;	0,0
722,1197509765625;	199,75;	0,0;	0,0
722,2284545898438;	198,25;	0,0;	0,0
722,3372192382812;	205,0;	0,0;	0,0
722,4459228515625;	193,0;	0,0;	0,0
722,5546264648438;	201,0;	0,0;	0,0
722,6632690429688;	197,75;	0,0;	0,0
722,7718505859375;	202,0;	0,0;	0,0
722,8804931640625;	207,5;	0,0;	0,0
722,9891357421875;	206,0;	0,0;	0,0
723,0977783203125;	206,5;	0,0;	0,0
723,206298828125;	210,75;	0,0;	0,0
723,3148803710938;	200,0;	0,0;	0,0
723,4234008789062;	205,75;	0,0;	0,0
723,5319213867188;	202,5;	0,0;	0,0
723,6403198242188;	202,75;	0,0;	0,0
723,7488403320312;	200,25;	0,0;	0,0
723,8572387695312;	192,0;	0,0;	0,0
723,9657592773438;	202,75;	0,0;	0,0
724,0740966796875;	196,25;	0,0;	0,0
724,1824951171875;	210,25;	0,0;	0,0
724,2908325195312;	196,0;	0,0;	0,0
724,3992309570312;	200,0;	0,0;	0,0
724,507568359375;	207,25;	0,0;	0,0
724,6158447265625;	205,5;	0,0;	0,0
724,7241821289062;	208,5;	0,0;	0,0
724,8324584960938;	199,0;	0,0;	0,0
724,940673828125;	197,5;	0,0;	0,0
725,0489501953125;	211,0;	0,0;	0,0
725,1571655273438;	211,75;	0,0;	0,0
725,2653198242188;	198,25;	0,0;	0,0
725,3734741210938;	193,0;	0,0;	0,0
725,4816284179688;	207,25;	0,0;	0,0
725,5897216796875;	197,5;	0,0;	0,0
725,6978759765625;	191,75;	0,0;	0,0
725,8060302734375;	207,5;	0,0;	0,0
725,9141235351562;	200,5;	0,0;	0,0
726,0220947265625;	194,0;	0,0;	0,0
726,130126953125;	209,25;	0,0;	0,0
726,2381591796875;	211,25;	0,0;	0,0
726,3461303710938;	198,75;	0,0;	0,0
726,4541625976562;	202,75;	0,0;	0,0
726,5620727539062;	204,5;	0,0;	0,0
726,6700439453125;	203,0;	0,0;	0,0
726,7779541015625;	197,5;	0,0;	0,0
726,8858032226562;	206,75;	0,0;	0,0
726,99365234375;	198,25;	0,0;	0,0
727,1015625;	191,25;	0,0;	0,0
727,2094116210938;	210,5;	0,0;	0,0
727,3172607421875;	207,75;	0,0;	0,0
727,4249877929688;	198,25;	0,0;	0,0
727,5327758789062;	205,0;	0,0;	0,0
727,6405029296875;	195,0;	0,0;	0,0
727,748291015625;	210,75;	0,0;	0,0
727,8560180664062;	203,25;	0,0;	0,0
727,9636840820312;	206,0;	0,0;	0,0
728,0713500976562;	199,0;	0,0;	0,0
728,1790161132812;	198,0;	0,0;	0,0
728,2865600585938;	196,75;	0,0;	0,0
728,3942260742188;	201,0;	0,0;	0,0
728,5018310546875;	207,0;	0,0;	0,0
728,6094360351562;	193,0;	0,0;	0,0
728,7169189453125;	207,0;	0,0;	0,0
728,8245239257812;	194,25;	0,0;	0,0
728,9320678710938;	201,0;	0,0;	0,0
729,0394897460938;	204,0;	0,0;	0,0
729,14697265625;	198,5;	0,0;	0,0
729,2545166015625;	215,5;	0,0;	0,0
729,3619384765625;	198,5;	0,0;	0,0
729,4693603515625;	206,0;	0,0;	0,0
729,5767822265625;	194,5;	0,0;	0,0
729,68408203125;	208,25;	0,0;	0,0
729,7914428710938;	203,75;	0,0;	0,0
729,8988037109375;	193,25;	0,0;	0,0
730,0061645507812;	202,0;	0,0;	0,0
730,1134033203125;	181,25;	0,0;	0,0
730,2206420898438;	197,5;	0,0;	0,0
730,327880859375;	203,75;	0,0;	0,0
730,4351806640625;	196,0;	0,0;	0,0
730,5424194335938;	202,5;	0,0;	0,0
730,649658203125;	210,0;	0,0;	0,0
730,7567749023438;	206,75;	0,0;	0,0
730,8639526367188;	200,75;	0,0;	0,0
730,9710693359375;	206,0;	0,0;	0,0
731,0781860351562;	208,75;	0,0;	0,0
731,185302734375;	200,5;	0,0;	0,0
731,2923583984375;	208,75;	0,0;	0,0
731,3994750976562;	205,75;	0,0;	0,0
731,5064697265625;	202,0;	0,0;	0,0
731,613525390625;	212,25;	0,0;	0,0
731,720458984375;	197,25;	0,0;	0,0
731,8274536132812;	210,25;	0,0;	0,0
731,9344482421875;	203,75;	0,0;	0,0
732,0413818359375;	211,0;	0,0;	0,0
732,1482543945312;	207,0;	0,0;	0,0
732,2551879882812;	207,0;	0,0;	0,0
732,362060546875;	205,5;	0,0;	0,0
732,4689331054688;	211,25;	0,0;	0,0
732,5757446289062;	232,0;	0,0;	0,0
732,6825561523438;	214,0;	0,0;	0,0
732,7894287109375;	211,5;	0,0;	0,0
732,8961181640625;	221,75;	0,0;	0,0
733,0029296875;	210,0;	0,0;	0,0
733,1096801757812;	214,0;	0,0;	0,0
733,2163696289062;	200,5;	0,0;	0,0
733,3231201171875;	220,75;	0,0;	0,0
733,4298095703125;	216,75;	0,0;	0,0
733,5364379882812;	204,5;	0,0;	0,0
733,64306640625;	207,0;	0,0;	0,0
733,7496337890625;	209,75;	0,0;	0,0
733,8562622070312;	197,25;	0,0;	0,0
733,9628295898438;	204,25;	0,0;	0,0
734,0694580078125;	209,25;	0,0;	0,0
734,1759033203125;	187,5;	0,0;	0,0
734,282470703125;	201,25;	0,0;	0,0
734,3889770507812;	192,5;	0,0;	0,0
734,4954223632812;	216,5;	0,0;	0,0
734,6018676757812;	212,0;	0,0;	0,0
734,7083129882812;	208,25;	0,0;	0,0
734,8148193359375;	196,5;	0,0;	0,0
734,921142578125;	204,75;	0,0;	0,0
735,0275268554688;	202,25;	0,0;	0,0
735,1338500976562;	198,0;	0,0;	0,0
735,2401733398438;	195,0;	0,0;	0,0
735,3464965820312;	212,75;	0,0;	0,0
735,4528198242188;	197,25;	0,0;	0,0
735,55908203125;	197,5;	0,0;	0,0
735,6653442382812;	192,0;	0,0;	0,0
735,7716674804688;	216,0;	0,0;	0,0
735,8777465820312;	209,75;	0,0;	0,0
735,9840087890625;	210,0;	0,0;	0,0
736,0902099609375;	206,75;	0,0;	0,0
736,1963500976562;	197,0;	0,0;	0,0
736,302490234375;	203,5;	0,0;	0,0
736,4086303710938;	210,25;	0,0;	0,0
736,5147094726562;	205,0;	0,0;	0,0
736,6207885742188;	198,75;	0,0;	0,0
736,7268676757812;	204,0;	0,0;	0,0
736,8328857421875;	204,75;	0,0;	0,0
736,9389038085938;	200,5;	0,0;	0,0
737,044921875;	216,0;	0,0;	0,0
737,15087890625;	197,75;	0,0;	0,0
737,2568359375;	211,0;	0,0;	0,0
737,36279296875;	200,75;	0,0;	0,0
737,4686889648438;	203,25;	0,0;	0,0
737,5745239257812;	202,0;	0,0;	0,0
737,680419921875;	199,25;	0,0;	0,0
737,7863159179688;	203,5;	0,0;	0,0
737,89208984375;	210,25;	0,0;	0,0
737,9979248046875;	201,0;	0,0;	0,0
738,103759765625;	219,5;	0,0;	0,0
738,2095336914062;	212,5;	0,0;	0,0
738,3152465820312;	206,75;	0,0;	0,0
738,4210205078125;	223,0;	0,0;	0,0
738,5266723632812;	212,0;	0,0;	0,0
738,6323852539062;	197,25;	0,0;	0,0
738,7380981445312;	203,25;	0,0;	0,0
738,84375;	203,75;	0,0;	0,0
738,9493408203125;	206,5;	0,0;	0,0
739,0549926757812;	200,5;	0,0;	0,0
739,1605834960938;	194,0;	0,0;	0,0
739,26611328125;	208,5;	0,0;	0,0
739,3717041015625;	200,75;	0,0;	0,0
739,477294921875;	214,75;	0,0;	0,0
739,582763671875;	211,25;	0,0;	0,0
739,688232421875;	211,0;	0,0;	0,0
739,7937622070312;	210,25;	0,0;	0,0
739,8991088867188;	207,75;	0,0;	0,0
740,0045776367188;	211,25;	0,0;	0,0
740,1099853515625;	212,0;	0,0;	0,0
740,2153930664062;	193,5;	0,0;	0,0
740,32080078125;	212,5;	0,0;	0,0
740,4261474609375;	209,75;	0,0;	0,0
740,5314331054688;	209,0;	0,0;	0,0
740,63671875;	205,0;	0,0;	0,0
740,7420043945312;	220,25;	0,0;	0,0
740,8473510742188;	216,25;	0,0;	0,0
740,9525146484375;	212,25;	0,0;	0,0
741,0578002929688;	202,5;	0,0;	0,0
741,1630249023438;	212,0;	0,0;	0,0
741,2681884765625;	211,0;	0,0;	0,0
741,3733520507812;	219,0;	0,0;	0,0
741,478515625;	233,0;	0,0;	0,0
741,5836181640625;	231,75;	0,0;	0,0
741,688720703125;	228,5;	0,0;	0,0
741,7938232421875;	236,0;	0,0;	0,0
741,8988647460938;	241,0;	0,0;	0,0
742,00390625;	249,0;	0,0;	0,0
742,1089477539062;	262,25;	0,0;	0,0
742,2139892578125;	334,25;	0,0;	0,0
742,3189697265625;	464,5;	0,0;	0,0
742,4239501953125;	522,5;	0,0;	0,0
742,5288696289062;	409,5;	0,0;	0,0
742,6337890625;	335,0;	0,0;	0,0
742,7387084960938;	303,0;	0,0;	0,0
742,8436279296875;	281,25;	0,0;	0,0
742,948486328125;	250,25;	0,0;	0,0
743,0532836914062;	260,25;	0,0;	0,0
743,1581420898438;	246,5;	0,0;	0,0
743,262939453125;	253,5;	0,0;	0,0
743,36767578125;	252,0;	0,0;	0,0
743,4724731445312;	233,5;	0,0;	0,0
743,5772094726562;	251,5;	0,0;	0,0
743,681884765625;	256,25;	0,0;	0,0
743,78662109375;	255,75;	0,0;	0,0
743,8912963867188;	279,0;	0,0;	0,0
743,9959106445312;	334,25;	0,0;	0,0
744,1005859375;	481,75;	0,0;	0,0
744,2052001953125;	731,0;	0,0;	0,0
744,3097534179688;	818,25;	0,0;	0,0
744,4143676757812;	531,5;	0,0;	0,0
744,5189819335938;	449,5;	0,0;	0,0
744,6234741210938;	358,25;	0,0;	0,0
744,72802734375;	321,0;	0,0;	0,0
744,8325805664062;	305,0;	0,0;	0,0
744,93701171875;	294,25;	0,0;	0,0
745,0414428710938;	282,25;	0,0;	0,0
745,1458740234375;	263,0;	0,0;	0,0
745,2503051757812;	265,5;	0,0;	0,0
745,3546752929688;	251,5;	0,0;	0,0
745,4590454101562;	256,0;	0,0;	0,0
745,5634765625;	253,0;	0,0;	0,0
745,667724609375;	255,5;	0,0;	0,0
745,7720947265625;	252,75;	0,0;	0,0
745,8764038085938;	270,75;	0,0;	0,0
745,9805908203125;	247,5;	0,0;	0,0
746,0848999023438;	266,5;	0,0;	0,0
746,1891479492188;	265,25;	0,0;	0,0
746,2933959960938;	273,75;	0,0;	0,0
746,3975219726562;	296,75;	0,0;	0,0
746,501708984375;	327,75;	0,0;	0,0
746,6058349609375;	395,75;	0,0;	0,0
746,7100219726562;	646,5;	0,0;	0,0
746,8140869140625;	1140,25;	0,0;	0,0
746,918212890625;	1074,75;	0,0;	0,0
747,022216796875;	801,25;	0,0;	0,0
747,1262817382812;	581,25;	0,0;	0,0
747,2302856445312;	457,75;	0,0;	0,0
747,3343505859375;	421,5;	0,0;	0,0
747,4383544921875;	379,75;	0,0;	0,0
747,5422973632812;	358,0;	0,0;	0,0
747,6461791992188;	364,0;	0,0;	0,0
747,7501831054688;	318,75;	0,0;	0,0
747,8540649414062;	309,25;	0,0;	0,0
747,9579467773438;	297,75;	0,0;	0,0
748,0618286132812;	312,0;	0,0;	0,0
748,1656494140625;	300,0;	0,0;	0,0
748,26953125;	286,75;	0,0;	0,0
748,373291015625;	272,5;	0,0;	0,0
748,47705078125;	266,25;	0,0;	0,0
748,580810546875;	268,5;	0,0;	0,0
748,6845703125;	246,5;	0,0;	0,0
748,7882690429688;	255,25;	0,0;	0,0
748,8920288085938;	255,75;	0,0;	0,0
748,9956665039062;	249,5;	0,0;	0,0
749,099365234375;	235,25;	0,0;	0,0
749,2030029296875;	232,75;	0,0;	0,0
749,3065795898438;	237,0;	0,0;	0,0
749,4102172851562;	235,75;	0,0;	0,0
749,5137939453125;	244,75;	0,0;	0,0
749,6173706054688;	221,0;	0,0;	0,0
749,7208862304688;	225,25;	0,0;	0,0
749,8244018554688;	223,0;	0,0;	0,0
749,9278564453125;	214,25;	0,0;	0,0
750,0313720703125;	222,75;	0,0;	0,0
750,1348266601562;	220,5;	0,0;	0,0
750,23828125;	216,0;	0,0;	0,0
750,3416748046875;	225,0;	0,0;	0,0
750,445068359375;	222,5;	0,0;	0,0
750,54833984375;	218,75;	0,0;	0,0
750,6517944335938;	215,25;	0,0;	0,0
750,755126953125;	212,5;	0,0;	0,0
750,8584594726562;	223,5;	0,0;	0,0
750,9617309570312;	226,75;	0,0;	0,0
751,0650024414062;	210,75;	0,0;	0,0
751,1682739257812;	214,5;	0,0;	0,0
751,271484375;	210,75;	0,0;	0,0
751,3746337890625;	215,75;	0,0;	0,0
751,4779052734375;	227,75;	0,0;	0,0
751,5811157226562;	215,25;	0,0;	0,0
751,6841430664062;	215,25;	0,0;	0,0
751,787353515625;	207,75;	0,0;	0,0
751,890380859375;	210,75;	0,0;	0,0
751,9934692382812;	211,25;	0,0;	0,0
752,0965576171875;	196,0;	0,0;	0,0
752,1996459960938;	228,5;	0,0;	0,0
752,3026123046875;	215,25;	0,0;	0,0
752,4056396484375;	207,25;	0,0;	0,0
752,5086059570312;	223,5;	0,0;	0,0
752,6115112304688;	212,0;	0,0;	0,0
752,7144775390625;	207,75;	0,0;	0,0
752,8174438476562;	223,0;	0,0;	0,0
752,92041015625;	205,5;	0,0;	0,0
753,023193359375;	219,75;	0,0;	0,0
753,1260986328125;	211,5;	0,0;	0,0
753,2288818359375;	213,25;	0,0;	0,0
753,3317260742188;	211,5;	0,0;	0,0
753,4345703125;	209,75;	0,0;	0,0
753,537353515625;	209,75;	0,0;	0,0
753,6400146484375;	212,75;	0,0;	0,0
753,7427978515625;	203,5;	0,0;	0,0
753,845458984375;	206,25;	0,0;	0,0
753,9481811523438;	205,25;	0,0;	0,0
754,0508422851562;	206,75;	0,0;	0,0
754,153564453125;	219,25;	0,0;	0,0
754,2561645507812;	201,75;	0,0;	0,0
754,3587646484375;	210,0;	0,0;	0,0
754,4613647460938;	200,5;	0,0;	0,0
754,5639038085938;	202,75;	0,0;	0,0
754,6664428710938;	201,5;	0,0;	0,0
754,7689819335938;	212,75;	0,0;	0,0
754,8715209960938;	210,5;	0,0;	0,0
754,9739379882812;	208,25;	0,0;	0,0
755,0764770507812;	210,25;	0,0;	0,0
755,1788330078125;	208,25;	0,0;	0,0
755,2813110351562;	198,75;	0,0;	0,0
755,3837280273438;	202,25;	0,0;	0,0
755,4861450195312;	219,0;	0,0;	0,0
755,5885009765625;	207,5;	0,0;	0,0
755,6908569335938;	210,5;	0,0;	0,0
755,7930908203125;	200,25;	0,0;	0,0
755,8954467773438;	210,5;	0,0;	0,0
755,9976806640625;	203,5;	0,0;	0,0
756,0999755859375;	203,25;	0,0;	0,0
756,2022094726562;	200,25;	0,0;	0,0
756,3043823242188;	211,5;	0,0;	0,0
756,4066772460938;	211,75;	0,0;	0,0
756,5087280273438;	193,25;	0,0;	0,0
756,6109619140625;	191,0;	0,0;	0,0
756,7130737304688;	202,0;	0,0;	0,0
756,8152465820312;	211,75;	0,0;	0,0
756,9172973632812;	211,25;	0,0;	0,0
757,0194091796875;	209,5;	0,0;	0,0
757,1213989257812;	199,5;	0,0;	0,0
757,2234497070312;	202,0;	0,0;	0,0
757,3255004882812;	205,25;	0,0;	0,0
757,4274291992188;	193,0;	0,0;	0,0
757,5294189453125;	201,25;	0,0;	0,0
757,63134765625;	208,75;	0,0;	0,0
757,7333374023438;	196,5;	0,0;	0,0
757,8351440429688;	212,5;	0,0;	0,0
757,9371337890625;	208,0;	0,0;	0,0
758,0389404296875;	196,5;	0,0;	0,0
758,140869140625;	203,75;	0,0;	0,0
758,2426147460938;	186,75;	0,0;	0,0
758,3444213867188;	198,75;	0,0;	0,0
758,4461669921875;	193,0;	0,0;	0,0
758,5479125976562;	197,75;	0,0;	0,0
758,6497192382812;	195,25;	0,0;	0,0
758,7514038085938;	198,75;	0,0;	0,0
758,8530883789062;	214,25;	0,0;	0,0
758,954833984375;	203,0;	0,0;	0,0
759,0564575195312;	199,25;	0,0;	0,0
759,1580810546875;	195,5;	0,0;	0,0
759,2597045898438;	203,25;	0,0;	0,0
759,361328125;	207,5;	0,0;	0,0
759,4628295898438;	211,5;	0,0;	0,0
759,564453125;	191,0;	0,0;	0,0
759,6659545898438;	194,25;	0,0;	0,0
759,7674560546875;	202,5;	0,0;	0,0
759,8690185546875;	195,25;	0,0;	0,0
759,970458984375;	196,25;	0,0;	0,0
760,0719604492188;	208,0;	0,0;	0,0
760,17333984375;	208,0;	0,0;	0,0
760,2747802734375;	208,75;	0,0;	0,0
760,3760986328125;	209,5;	0,0;	0,0
760,4774169921875;	202,0;	0,0;	0,0
760,5787963867188;	197,5;	0,0;	0,0
760,68017578125;	199,0;	0,0;	0,0
760,781494140625;	203,75;	0,0;	0,0
760,8827514648438;	206,25;	0,0;	0,0
760,9840087890625;	205,0;	0,0;	0,0
761,085205078125;	200,25;	0,0;	0,0
761,1864624023438;	201,5;	0,0;	0,0
761,2876586914062;	206,25;	0,0;	0,0
761,388916015625;	198,0;	0,0;	0,0
761,489990234375;	204,5;	0,0;	0,0
761,5911254882812;	211,0;	0,0;	0,0
761,6921997070312;	185,75;	0,0;	0,0
761,7933349609375;	197,5;	0,0;	0,0
761,8944702148438;	206,0;	0,0;	0,0
761,9954833984375;	212,75;	0,0;	0,0
762,0964965820312;	203,5;	0,0;	0,0
762,197509765625;	206,75;	0,0;	0,0
762,2984619140625;	200,25;	0,0;	0,0
762,3994750976562;	192,5;	0,0;	0,0
762,5004272460938;	197,25;	0,0;	0,0
762,601318359375;	204,25;	0,0;	0,0
762,7022705078125;	191,75;	0,0;	0,0
762,8031616210938;	205,5;	0,0;	0,0
762,9039916992188;	196,25;	0,0;	0,0
763,0048217773438;	201,0;	0,0;	0,0
763,1056518554688;	194,0;	0,0;	0,0
763,2064819335938;	194,75;	0,0;	0,0
763,3073120117188;	200,25;	0,0;	0,0
763,4080200195312;	215,0;	0,0;	0,0
763,5087280273438;	222,5;	0,0;	0,0
763,6094360351562;	218,5;	0,0;	0,0
763,7101440429688;	210,75;	0,0;	0,0
763,8108520507812;	201,5;	0,0;	0,0
763,9115600585938;	224,0;	0,0;	0,0
764,0121459960938;	210,75;	0,0;	0,0
764,1127319335938;	205,75;	0,0;	0,0
764,2133178710938;	192,75;	0,0;	0,0
764,3139038085938;	203,75;	0,0;	0,0
764,4144897460938;	209,0;	0,0;	0,0
764,5150146484375;	201,25;	0,0;	0,0
764,6155395507812;	206,75;	0,0;	0,0
764,7159423828125;	209,25;	0,0;	0,0
764,8164672851562;	203,75;	0,0;	0,0
764,9168701171875;	199,5;	0,0;	0,0
765,017333984375;	209,0;	0,0;	0,0
765,1177368164062;	213,75;	0,0;	0,0
765,2181396484375;	209,0;	0,0;	0,0
765,3184204101562;	200,25;	0,0;	0,0
765,4187622070312;	219,25;	0,0;	0,0
765,5191040039062;	215,5;	0,0;	0,0
765,619384765625;	206,75;	0,0;	0,0
765,7196655273438;	209,5;	0,0;	0,0
765,8199462890625;	213,0;	0,0;	0,0
765,920166015625;	231,0;	0,0;	0,0
766,0203857421875;	230,75;	0,0;	0,0
766,12060546875;	273,25;	0,0;	0,0
766,2207641601562;	357,75;	0,0;	0,0
766,3209228515625;	762,5;	0,0;	0,0
766,4210815429688;	1649,0;	0,0;	0,0
766,521240234375;	1138,75;	0,0;	0,0
766,6212158203125;	422,0;	0,0;	0,0
766,7213745117188;	269,25;	0,0;	0,0
766,8213500976562;	245,75;	0,0;	0,0
766,92138671875;	228,5;	0,0;	0,0
767,0214233398438;	216,25;	0,0;	0,0
767,1213989257812;	209,5;	0,0;	0,0
767,2213134765625;	219,5;	0,0;	0,0
767,3212890625;	231,75;	0,0;	0,0
767,4212646484375;	199,25;	0,0;	0,0
767,5211181640625;	218,5;	0,0;	0,0
767,6209716796875;	211,25;	0,0;	0,0
767,7208251953125;	219,25;	0,0;	0,0
767,8207397460938;	225,25;	0,0;	0,0
767,9204711914062;	212,0;	0,0;	0,0
768,0203247070312;	209,25;	0,0;	0,0
768,1199951171875;	206,0;	0,0;	0,0
768,2197875976562;	215,5;	0,0;	0,0
768,319580078125;	216,5;	0,0;	0,0
768,4192504882812;	200,0;	0,0;	0,0
768,5189208984375;	216,5;	0,0;	0,0
768,6185913085938;	222,5;	0,0;	0,0
768,7182006835938;	221,75;	0,0;	0,0
768,81787109375;	212,25;	0,0;	0,0
768,91748046875;	216,5;	0,0;	0,0
769,01708984375;	212,75;	0,0;	0,0
769,1165771484375;	209,25;	0,0;	0,0
769,2161865234375;	206,75;	0,0;	0,0
769,315673828125;	232,5;	0,0;	0,0
769,4151611328125;	227,75;	0,0;	0,0
769,5146484375;	245,25;	0,0;	0,0
769,6141357421875;	292,0;	0,0;	0,0
769,713623046875;	495,75;	0,0;	0,0
769,8129272460938;	1157,25;	0,0;	0,0
769,912353515625;	955,75;	0,0;	0,0
770,0116577148438;	378,0;	0,0;	0,0
770,111083984375;	269,5;	0,0;	0,0
770,2103881835938;	228,75;	0,0;	0,0
770,3097534179688;	223,5;	0,0;	0,0
770,408935546875;	222,25;	0,0;	0,0
770,5082397460938;	217,0;	0,0;	0,0
770,6075439453125;	219,75;	0,0;	0,0
770,7067260742188;	214,75;	0,0;	0,0
770,8059692382812;	219,75;	0,0;	0,0
770,9051513671875;	228,0;	0,0;	0,0
771,0042724609375;	223,0;	0,0;	0,0
771,1033935546875;	219,75;	0,0;	0,0
771,2025146484375;	197,75;	0,0;	0,0
771,3016357421875;	227,75;	0,0;	0,0
771,400634765625;	219,5;	0,0;	0,0
771,499755859375;	218,5;	0,0;	0,0
771,5988159179688;	216,25;	0,0;	0,0
771,6978149414062;	203,25;	0,0;	0,0
771,7968139648438;	227,25;	0,0;	0,0
771,8956909179688;	216,75;	0,0;	0,0
771,9946899414062;	220,75;	0,0;	0,0
772,0936279296875;	213,0;	0,0;	0,0
772,1925659179688;	230,0;	0,0;	0,0
772,2913818359375;	213,0;	0,0;	0,0
772,3902587890625;	224,75;	0,0;	0,0
772,4891357421875;	215,25;	0,0;	0,0
772,587890625;	219,0;	0,0;	0,0
772,6867065429688;	220,0;	0,0;	0,0
772,7855224609375;	222,5;	0,0;	0,0
772,88427734375;	229,25;	0,0;	0,0
772,9830322265625;	227,0;	0,0;	0,0
773,081787109375;	216,0;	0,0;	0,0
773,1803588867188;	227,0;	0,0;	0,0
773,2791137695312;	216,75;	0,0;	0,0
773,3777465820312;	220,0;	0,0;	0,0
773,4764404296875;	214,0;	0,0;	0,0
773,574951171875;	220,5;	0,0;	0,0
773,673583984375;	226,5;	0,0;	0,0
773,7721557617188;	224,25;	0,0;	0,0
773,8706665039062;	230,0;	0,0;	0,0
773,96923828125;	228,0;	0,0;	0,0
774,0677490234375;	224,25;	0,0;	0,0
774,1661987304688;	230,25;	0,0;	0,0
774,2646484375;	239,5;	0,0;	0,0
774,3630981445312;	230,0;	0,0;	0,0
774,4614868164062;	230,0;	0,0;	0,0
774,5598754882812;	222,0;	0,0;	0,0
774,6583251953125;	224,5;	0,0;	0,0
774,7566528320312;	222,75;	0,0;	0,0
774,8549194335938;	225,0;	0,0;	0,0
774,9533081054688;	246,0;	0,0;	0,0
775,051513671875;	240,5;	0,0;	0,0
775,1498413085938;	239,75;	0,0;	0,0
775,248046875;	235,25;	0,0;	0,0
775,3463134765625;	239,5;	0,0;	0,0
775,4445190429688;	252,0;	0,0;	0,0
775,542724609375;	266,75;	0,0;	0,0
775,640869140625;	238,75;	0,0;	0,0
775,7389526367188;	267,5;	0,0;	0,0
775,8370361328125;	281,25;	0,0;	0,0
775,9352416992188;	290,5;	0,0;	0,0
776,0332641601562;	306,25;	0,0;	0,0
776,13134765625;	306,25;	0,0;	0,0
776,2293701171875;	316,75;	0,0;	0,0
776,3273315429688;	328,5;	0,0;	0,0
776,4253540039062;	367,25;	0,0;	0,0
776,5233154296875;	410,5;	0,0;	0,0
776,6212768554688;	433,5;	0,0;	0,0
776,7191772460938;	518,25;	0,0;	0,0
776,817138671875;	665,25;	0,0;	0,0
776,9150390625;	873,0;	0,0;	0,0
777,0128173828125;	1334,75;	0,0;	0,0
777,1107177734375;	2205,25;	0,0;	0,0
777,20849609375;	2361,5;	0,0;	0,0
777,306396484375;	2294,0;	0,0;	0,0
777,4041137695312;	2398,5;	0,0;	0,0
777,5018310546875;	2111,75;	0,0;	0,0
777,5995483398438;	1442,0;	0,0;	0,0
777,6973266601562;	976,25;	0,0;	0,0
777,7950439453125;	734,5;	0,0;	0,0
777,8926391601562;	607,25;	0,0;	0,0
777,9902954101562;	494,25;	0,0;	0,0
778,0879516601562;	442,5;	0,0;	0,0
778,1854858398438;	420,0;	0,0;	0,0
778,2830810546875;	400,75;	0,0;	0,0
778,3806762695312;	381,5;	0,0;	0,0
778,4782104492188;	357,0;	0,0;	0,0
778,5757446289062;	330,75;	0,0;	0,0
778,6732177734375;	311,5;	0,0;	0,0
778,7706909179688;	309,75;	0,0;	0,0
778,8681640625;	287,75;	0,0;	0,0
778,9656372070312;	285,0;	0,0;	0,0
779,0630493164062;	274,25;	0,0;	0,0
779,1604614257812;	262,25;	0,0;	0,0
779,2577514648438;	248,75;	0,0;	0,0
779,3551025390625;	280,25;	0,0;	0,0
779,4524536132812;	250,0;	0,0;	0,0
779,5497436523438;	271,0;	0,0;	0,0
779,6470336914062;	248,5;	0,0;	0,0
779,7443237304688;	258,75;	0,0;	0,0
779,841552734375;	269,0;	0,0;	0,0
779,9387817382812;	293,5;	0,0;	0,0
780,035888671875;	266,5;	0,0;	0,0
780,1331176757812;	241,75;	0,0;	0,0
780,2303466796875;	239,75;	0,0;	0,0
780,3274536132812;	236,5;	0,0;	0,0
780,4244995117188;	235,25;	0,0;	0,0
780,5216064453125;	242,75;	0,0;	0,0
780,6187133789062;	241,75;	0,0;	0,0
780,7157592773438;	233,75;	0,0;	0,0
780,812744140625;	232,75;	0,0;	0,0
780,9098510742188;	231,0;	0,0;	0,0
781,0067749023438;	219,75;	0,0;	0,0
781,1036987304688;	231,25;	0,0;	0,0
781,20068359375;	217,25;	0,0;	0,0
781,2975463867188;	230,25;	0,0;	0,0
781,3944702148438;	215,0;	0,0;	0,0
781,4913940429688;	217,75;	0,0;	0,0
781,5882568359375;	238,5;	0,0;	0,0
781,68505859375;	226,0;	0,0;	0,0
781,7819213867188;	231,0;	0,0;	0,0
781,878662109375;	228,0;	0,0;	0,0
781,9754028320312;	214,75;	0,0;	0,0
782,0721435546875;	213,75;	0,0;	0,0
782,1689453125;	216,5;	0,0;	0,0
782,265625;	213,0;	0,0;	0,0
782,3622436523438;	218,5;	0,0;	0,0
782,458984375;	215,75;	0,0;	0,0
782,5555419921875;	216,25;	0,0;	0,0
782,6522216796875;	211,75;	0,0;	0,0
782,7488403320312;	213,5;	0,0;	0,0
782,8453979492188;	218,25;	0,0;	0,0
782,9419555664062;	209,75;	0,0;	0,0
783,0384521484375;	210,0;	0,0;	0,0
783,1349487304688;	226,75;	0,0;	0,0
783,2314453125;	206,25;	0,0;	0,0
783,3279418945312;	212,5;	0,0;	0,0
783,4243774414062;	207,25;	0,0;	0,0
783,5208129882812;	196,5;	0,0;	0,0
783,6171875;	214,25;	0,0;	0,0
783,7135620117188;	217,0;	0,0;	0,0
783,8098754882812;	217,75;	0,0;	0,0
783,90625;	204,0;	0,0;	0,0
784,0025634765625;	206,25;	0,0;	0,0
784,0989379882812;	202,0;	0,0;	0,0
784,1951904296875;	202,0;	0,0;	0,0
784,2913818359375;	213,25;	0,0;	0,0
784,3875732421875;	214,0;	0,0;	0,0
784,48388671875;	225,5;	0,0;	0,0
784,5800170898438;	205,5;	0,0;	0,0
784,6762084960938;	223,5;	0,0;	0,0
784,7723388671875;	210,5;	0,0;	0,0
784,8684692382812;	199,5;	0,0;	0,0
784,964599609375;	202,75;	0,0;	0,0
785,0606079101562;	203,75;	0,0;	0,0
785,1566772460938;	205,25;	0,0;	0,0
785,2527465820312;	206,25;	0,0;	0,0
785,3487548828125;	212,25;	0,0;	0,0
785,4447021484375;	199,25;	0,0;	0,0
785,5407104492188;	201,25;	0,0;	0,0
785,6365966796875;	190,0;	0,0;	0,0
785,7326049804688;	209,0;	0,0;	0,0
785,8284912109375;	214,5;	0,0;	0,0
785,9243774414062;	217,5;	0,0;	0,0
786,020263671875;	204,5;	0,0;	0,0
786,1160888671875;	203,5;	0,0;	0,0
786,2118530273438;	192,0;	0,0;	0,0
786,3076782226562;	198,75;	0,0;	0,0
786,4035034179688;	207,75;	0,0;	0,0
786,4992065429688;	221,75;	0,0;	0,0
786,5949096679688;	211,25;	0,0;	0,0
786,690673828125;	198,0;	0,0;	0,0
786,7863159179688;	220,25;	0,0;	0,0
786,8820190429688;	214,75;	0,0;	0,0
786,9776611328125;	184,75;	0,0;	0,0
787,0732421875;	207,5;	0,0;	0,0
787,1689453125;	223,5;	0,0;	0,0
787,2644653320312;	204,0;	0,0;	0,0
787,3600463867188;	222,25;	0,0;	0,0
787,4555053710938;	204,25;	0,0;	0,0
787,5510864257812;	220,75;	0,0;	0,0
787,6465454101562;	205,75;	0,0;	0,0
787,7420654296875;	207,5;	0,0;	0,0
787,8374633789062;	214,5;	0,0;	0,0
787,932861328125;	209,0;	0,0;	0,0
788,0283813476562;	215,25;	0,0;	0,0
788,1236572265625;	207,25;	0,0;	0,0
788,2190551757812;	206,75;	0,0;	0,0
788,314453125;	198,25;	0,0;	0,0
788,4097900390625;	215,5;	0,0;	0,0
788,5050048828125;	207,5;	0,0;	0,0
788,600341796875;	206,0;	0,0;	0,0
788,695556640625;	207,25;	0,0;	0,0
788,790771484375;	215,0;	0,0;	0,0
788,885986328125;	217,25;	0,0;	0,0
788,981201171875;	209,25;	0,0;	0,0
789,0762939453125;	212,0;	0,0;	0,0
789,1715087890625;	209,0;	0,0;	0,0
789,2665405273438;	210,5;	0,0;	0,0
789,3616943359375;	196,0;	0,0;	0,0
789,4568481445312;	208,0;	0,0;	0,0
789,5518798828125;	200,0;	0,0;	0,0
789,6469116210938;	212,0;	0,0;	0,0
789,741943359375;	210,25;	0,0;	0,0
789,8369140625;	217,0;	0,0;	0,0
789,9318237304688;	202,5;	0,0;	0,0
790,0267944335938;	218,0;	0,0;	0,0
790,1217651367188;	216,0;	0,0;	0,0
790,2166748046875;	214,0;	0,0;	0,0
790,3115234375;	210,0;	0,0;	0,0
790,4064331054688;	215,75;	0,0;	0,0
790,5011596679688;	205,0;	0,0;	0,0
790,5960083007812;	210,5;	0,0;	0,0
790,6908569335938;	201,5;	0,0;	0,0
790,7857055664062;	207,0;	0,0;	0,0
790,88037109375;	213,25;	0,0;	0,0
790,97509765625;	213,5;	0,0;	0,0
791,06982421875;	207,75;	0,0;	0,0
791,1644897460938;	201,75;	0,0;	0,0
791,2591552734375;	207,5;	0,0;	0,0
791,3538208007812;	205,0;	0,0;	0,0
791,4484252929688;	205,75;	0,0;	0,0
791,5430297851562;	210,75;	0,0;	0,0
791,6376342773438;	214,25;	0,0;	0,0
791,7321166992188;	206,75;	0,0;	0,0
791,82666015625;	206,5;	0,0;	0,0
791,9212036132812;	203,75;	0,0;	0,0
792,0157470703125;	205,25;	0,0;	0,0
792,1101684570312;	212,5;	0,0;	0,0
792,2046508789062;	214,75;	0,0;	0,0
792,2990112304688;	210,25;	0,0;	0,0
792,3934326171875;	209,75;	0,0;	0,0
792,48779296875;	213,0;	0,0;	0,0
792,5822143554688;	212,75;	0,0;	0,0
792,676513671875;	222,25;	0,0;	0,0
792,7708129882812;	210,5;	0,0;	0,0
792,8651123046875;	207,75;	0,0;	0,0
792,9593505859375;	211,0;	0,0;	0,0
793,0536499023438;	214,75;	0,0;	0,0
793,1478881835938;	206,0;	0,0;	0,0
793,2421264648438;	215,25;	0,0;	0,0
793,3363037109375;	215,75;	0,0;	0,0
793,430419921875;	215,0;	0,0;	0,0
793,5245361328125;	219,75;	0,0;	0,0
793,61865234375;	206,5;	0,0;	0,0
793,7128295898438;	218,5;	0,0;	0,0
793,806884765625;	217,75;	0,0;	0,0
793,90087890625;	216,5;	0,0;	0,0
793,9949340820312;	234,25;	0,0;	0,0
794,0889892578125;	238,25;	0,0;	0,0
794,1829223632812;	241,75;	0,0;	0,0
794,2769165039062;	249,75;	0,0;	0,0
794,3709106445312;	261,75;	0,0;	0,0
794,46484375;	273,5;	0,0;	0,0
794,5586547851562;	295,0;	0,0;	0,0
794,652587890625;	394,25;	0,0;	0,0
794,7463989257812;	408,25;	0,0;	0,0
794,8402099609375;	379,25;	0,0;	0,0
794,93408203125;	385,75;	0,0;	0,0
795,0278930664062;	406,5;	0,0;	0,0
795,1216430664062;	402,5;	0,0;	0,0
795,2153930664062;	357,0;	0,0;	0,0
795,30908203125;	303,5;	0,0;	0,0
795,4027709960938;	285,75;	0,0;	0,0
795,4964599609375;	262,75;	0,0;	0,0
795,5901489257812;	262,25;	0,0;	0,0
795,6837158203125;	250,5;	0,0;	0,0
795,7774047851562;	249,25;	0,0;	0,0
795,8709716796875;	236,75;	0,0;	0,0
795,9644775390625;	225,75;	0,0;	0,0
796,0580444335938;	216,0;	0,0;	0,0
796,1516723632812;	222,25;	0,0;	0,0
796,2451782226562;	218,5;	0,0;	0,0
796,3385620117188;	220,25;	0,0;	0,0
796,4320678710938;	223,25;	0,0;	0,0
796,5254516601562;	221,5;	0,0;	0,0
796,6189575195312;	212,0;	0,0;	0,0
796,7122802734375;	205,25;	0,0;	0,0
796,8057250976562;	217,0;	0,0;	0,0
796,8989868164062;	221,5;	0,0;	0,0
796,9923706054688;	213,25;	0,0;	0,0
797,085693359375;	204,0;	0,0;	0,0
797,178955078125;	210,0;	0,0;	0,0
797,272216796875;	206,0;	0,0;	0,0
797,365478515625;	213,75;	0,0;	0,0
797,458740234375;	212,5;	0,0;	0,0
797,5518188476562;	204,0;	0,0;	0,0
797,6450805664062;	202,0;	0,0;	0,0
797,7382202148438;	199,5;	0,0;	0,0
797,831298828125;	207,25;	0,0;	0,0
797,9244995117188;	212,25;	0,0;	0,0
798,017578125;	212,5;	0,0;	0,0
798,110595703125;	200,5;	0,0;	0,0
798,20361328125;	212,25;	0,0;	0,0
798,2965698242188;	199,5;	0,0;	0,0
798,3895874023438;	210,5;	0,0;	0,0
798,4826049804688;	200,75;	0,0;	0,0
798,5756225585938;	197,75;	0,0;	0,0
798,6685180664062;	197,5;	0,0;	0,0
798,7614135742188;	204,75;	0,0;	0,0
798,8543090820312;	202,25;	0,0;	0,0
798,9471435546875;	196,25;	0,0;	0,0
799,0400390625;	201,75;	0,0;	0,0
799,1328735351562;	212,75;	0,0;	0,0
799,2256469726562;	204,25;	0,0;	0,0
799,3184204101562;	195,5;	0,0;	0,0
799,4111938476562;	201,0;	0,0;	0,0
799,5038452148438;	201,25;	0,0;	0,0
799,5966186523438;	203,75;	0,0;	0,0
799,6892700195312;	201,0;	0,0;	0,0
799,781982421875;	200,75;	0,0;	0,0
799,8746337890625;	204,5;	0,0;	0,0
799,9672241210938;	195,5;	0,0;	0,0
800,059814453125;	203,75;	0,0;	0,0
800,1524047851562;	205,0;	0,0;	0,0
800,2449340820312;	212,75;	0,0;	0,0
800,3375244140625;	219,75;	0,0;	0,0
800,4300537109375;	204,75;	0,0;	0,0
800,5224609375;	205,25;	0,0;	0,0
800,614990234375;	207,5;	0,0;	0,0
800,7073364257812;	204,75;	0,0;	0,0
800,7998046875;	211,75;	0,0;	0,0
800,8922729492188;	194,25;	0,0;	0,0
800,984619140625;	212,0;	0,0;	0,0
801,076904296875;	206,75;	0,0;	0,0
801,1693115234375;	190,25;	0,0;	0,0
801,2615966796875;	195,75;	0,0;	0,0
801,3538818359375;	218,5;	0,0;	0,0
801,4461669921875;	201,0;	0,0;	0,0
801,5384521484375;	219,75;	0,0;	0,0
801,630615234375;	208,5;	0,0;	0,0
801,7227783203125;	204,75;	0,0;	0,0
801,8150024414062;	190,25;	0,0;	0,0
801,9071655273438;	199,5;	0,0;	0,0
801,999267578125;	202,25;	0,0;	0,0
802,0913696289062;	196,75;	0,0;	0,0
802,1835327148438;	198,25;	0,0;	0,0
802,2755737304688;	213,5;	0,0;	0,0
802,3676147460938;	198,75;	0,0;	0,0
802,4595947265625;	220,0;	0,0;	0,0
802,5516357421875;	213,25;	0,0;	0,0
802,6436157226562;	187,5;	0,0;	0,0
802,735595703125;	205,75;	0,0;	0,0
802,8275146484375;	204,25;	0,0;	0,0
802,91943359375;	192,0;	0,0;	0,0
803,0113525390625;	193,0;	0,0;	0,0
803,1031494140625;	190,75;	0,0;	0,0
803,195068359375;	216,75;	0,0;	0,0
803,286865234375;	200,0;	0,0;	0,0
803,378662109375;	200,5;	0,0;	0,0
803,4703979492188;	202,5;	0,0;	0,0
803,5621948242188;	193,75;	0,0;	0,0
803,6539306640625;	195,75;	0,0;	0,0
803,74560546875;	197,0;	0,0;	0,0
803,8373413085938;	196,25;	0,0;	0,0
803,928955078125;	196,75;	0,0;	0,0
804,0206298828125;	192,25;	0,0;	0,0
804,1122436523438;	186,25;	0,0;	0,0
804,2037963867188;	191,0;	0,0;	0,0
804,29541015625;	191,0;	0,0;	0,0
804,3870239257812;	194,75;	0,0;	0,0
804,4785766601562;	188,5;	0,0;	0,0
804,5699462890625;	190,0;	0,0;	0,0
804,6614990234375;	192,5;	0,0;	0,0
804,7529907226562;	191,0;	0,0;	0,0
804,8444213867188;	205,75;	0,0;	0,0
804,9358520507812;	187,25;	0,0;	0,0
805,0272216796875;	197,0;	0,0;	0,0
805,11865234375;	195,25;	0,0;	0,0
805,2099609375;	194,0;	0,0;	0,0
805,3013305664062;	192,75;	0,0;	0,0
805,392578125;	187,5;	0,0;	0,0
805,48388671875;	200,5;	0,0;	0,0
805,5751953125;	188,0;	0,0;	0,0
805,6664428710938;	203,5;	0,0;	0,0
805,757568359375;	191,25;	0,0;	0,0
805,8488159179688;	191,25;	0,0;	0,0
805,9400024414062;	199,75;	0,0;	0,0
806,0311889648438;	195,5;	0,0;	0,0
806,122314453125;	186,75;	0,0;	0,0
806,2134399414062;	193,0;	0,0;	0,0
806,3045043945312;	196,5;	0,0;	0,0
806,3955688476562;	194,25;	0,0;	0,0
806,4866333007812;	201,25;	0,0;	0,0
806,5775756835938;	190,75;	0,0;	0,0
806,6686401367188;	189,5;	0,0;	0,0
806,7596435546875;	191,25;	0,0;	0,0
806,8505859375;	192,0;	0,0;	0,0
806,9415283203125;	200,0;	0,0;	0,0
807,0324096679688;	201,75;	0,0;	0,0
807,1232299804688;	181,25;	0,0;	0,0
807,2141723632812;	207,5;	0,0;	0,0
807,3049926757812;	202,0;	0,0;	0,0
807,3958740234375;	199,0;	0,0;	0,0
807,486572265625;	207,25;	0,0;	0,0
807,577392578125;	183,0;	0,0;	0,0
807,6681518554688;	189,75;	0,0;	0,0
807,7588500976562;	203,0;	0,0;	0,0
807,8495483398438;	199,5;	0,0;	0,0
807,9403076171875;	196,5;	0,0;	0,0
808,0309448242188;	206,0;	0,0;	0,0
808,1215209960938;	199,25;	0,0;	0,0
808,212158203125;	188,0;	0,0;	0,0
808,302734375;	193,75;	0,0;	0,0
808,393310546875;	197,25;	0,0;	0,0
808,48388671875;	187,5;	0,0;	0,0
808,574462890625;	199,5;	0,0;	0,0
808,6649169921875;	202,0;	0,0;	0,0
808,7554321289062;	191,75;	0,0;	0,0
808,8458862304688;	197,0;	0,0;	0,0
808,936279296875;	190,25;	0,0;	0,0
809,0267333984375;	193,25;	0,0;	0,0
809,1171264648438;	202,5;	0,0;	0,0
809,2074584960938;	201,25;	0,0;	0,0
809,2977905273438;	195,0;	0,0;	0,0
809,38818359375;	193,5;	0,0;	0,0
809,4784545898438;	208,0;	0,0;	0,0
809,5687255859375;	193,75;	0,0;	0,0
809,6589965820312;	198,0;	0,0;	0,0
809,749267578125;	196,5;	0,0;	0,0
809,8394165039062;	198,25;	0,0;	0,0
809,9296875;	200,5;	0,0;	0,0
810,019775390625;	200,75;	0,0;	0,0
810,1099243164062;	188,0;	0,0;	0,0
810,2000732421875;	192,25;	0,0;	0,0
810,2902221679688;	202,0;	0,0;	0,0
810,3802490234375;	197,75;	0,0;	0,0
810,4703369140625;	201,25;	0,0;	0,0
810,5603637695312;	198,5;	0,0;	0,0
810,6503295898438;	198,5;	0,0;	0,0
810,7403564453125;	195,5;	0,0;	0,0
810,8303833007812;	195,25;	0,0;	0,0
810,9202880859375;	198,5;	0,0;	0,0
811,0101928710938;	201,25;	0,0;	0,0
811,10009765625;	197,25;	0,0;	0,0
811,18994140625;	201,75;	0,0;	0,0
811,27978515625;	198,5;	0,0;	0,0
811,3696899414062;	208,75;	0,0;	0,0
811,4595336914062;	229,5;	0,0;	0,0
811,5491943359375;	224,0;	0,0;	0,0
811,6390380859375;	226,25;	0,0;	0,0
811,7286987304688;	229,25;	0,0;	0,0
811,8184204101562;	206,25;	0,0;	0,0
811,908203125;	207,25;	0,0;	0,0
811,9978637695312;	208,5;	0,0;	0,0
812,0874633789062;	205,5;	0,0;	0,0
812,1771240234375;	225,0;	0,0;	0,0
812,2667846679688;	237,0;	0,0;	0,0
812,3562622070312;	289,0;	0,0;	0,0
812,4458618164062;	437,75;	0,0;	0,0
812,535400390625;	795,25;	0,0;	0,0
812,6249389648438;	756,5;	0,0;	0,0
812,7144165039062;	439,0;	0,0;	0,0
812,8038940429688;	285,0;	0,0;	0,0
812,893310546875;	237,75;	0,0;	0,0
812,9827880859375;	226,0;	0,0;	0,0
813,0722045898438;	220,75;	0,0;	0,0
813,1615600585938;	215,5;	0,0;	0,0
813,2508544921875;	192,0;	0,0;	0,0
813,3402709960938;	221,25;	0,0;	0,0
813,4295654296875;	216,5;	0,0;	0,0
813,518798828125;	204,25;	0,0;	0,0
813,6080932617188;	217,25;	0,0;	0,0
813,6973876953125;	212,0;	0,0;	0,0
813,78662109375;	214,5;	0,0;	0,0
813,8757934570312;	200,75;	0,0;	0,0
813,9649658203125;	198,0;	0,0;	0,0
814,0540771484375;	199,0;	0,0;	0,0
814,1431884765625;	201,5;	0,0;	0,0
814,2323608398438;	197,25;	0,0;	0,0
814,3214721679688;	209,25;	0,0;	0,0
814,4104614257812;	195,0;	0,0;	0,0
814,4995727539062;	201,5;	0,0;	0,0
814,5885620117188;	205,25;	0,0;	0,0
814,6775512695312;	201,0;	0,0;	0,0
814,7665405273438;	192,5;	0,0;	0,0
814,8555297851562;	210,5;	0,0;	0,0
814,9443969726562;	216,75;	0,0;	0,0
815,0333251953125;	199,0;	0,0;	0,0
815,1221923828125;	201,5;	0,0;	0,0
815,2110595703125;	201,75;	0,0;	0,0
815,2999267578125;	199,25;	0,0;	0,0
815,3887329101562;	212,75;	0,0;	0,0
815,4775390625;	192,5;	0,0;	0,0
815,5662231445312;	197,75;	0,0;	0,0
815,6550903320312;	203,25;	0,0;	0,0
815,7437133789062;	214,0;	0,0;	0,0
815,8323974609375;	199,25;	0,0;	0,0
815,921142578125;	197,75;	0,0;	0,0
816,0098266601562;	204,25;	0,0;	0,0
816,0984497070312;	217,5;	0,0;	0,0
816,18701171875;	215,5;	0,0;	0,0
816,275634765625;	208,5;	0,0;	0,0
816,3641967773438;	207,25;	0,0;	0,0
816,4526977539062;	215,0;	0,0;	0,0
816,541259765625;	215,75;	0,0;	0,0
816,6297607421875;	217,75;	0,0;	0,0
816,7182006835938;	215,75;	0,0;	0,0
816,8067016601562;	219,0;	0,0;	0,0
816,8950805664062;	212,0;	0,0;	0,0
816,9834594726562;	210,25;	0,0;	0,0
817,0718994140625;	210,75;	0,0;	0,0
817,1602783203125;	239,75;	0,0;	0,0
817,24853515625;	227,5;	0,0;	0,0
817,3369140625;	207,5;	0,0;	0,0
817,4251708984375;	233,5;	0,0;	0,0
817,5134887695312;	227,25;	0,0;	0,0
817,6017456054688;	247,25;	0,0;	0,0
817,68994140625;	243,25;	0,0;	0,0
817,7781372070312;	251,25;	0,0;	0,0
817,8663330078125;	248,25;	0,0;	0,0
817,9544677734375;	260,5;	0,0;	0,0
818,0426025390625;	309,0;	0,0;	0,0
818,1307373046875;	368,5;	0,0;	0,0
818,2188110351562;	496,0;	0,0;	0,0
818,306884765625;	607,0;	0,0;	0,0
818,3948974609375;	678,25;	0,0;	0,0
818,48291015625;	718,5;	0,0;	0,0
818,5709228515625;	654,25;	0,0;	0,0
818,658935546875;	638,0;	0,0;	0,0
818,746826171875;	714,0;	0,0;	0,0
818,8348388671875;	689,0;	0,0;	0,0
818,9226684570312;	532,25;	0,0;	0,0
819,0106201171875;	461,0;	0,0;	0,0
819,0984497070312;	408,0;	0,0;	0,0
819,186279296875;	393,0;	0,0;	0,0
819,2741088867188;	414,5;	0,0;	0,0
819,3619384765625;	552,5;	0,0;	0,0
819,44970703125;	621,0;	0,0;	0,0
819,537353515625;	463,0;	0,0;	0,0
819,6251220703125;	342,0;	0,0;	0,0
819,7127685546875;	315,75;	0,0;	0,0
819,8004760742188;	333,75;	0,0;	0,0
819,88818359375;	332,0;	0,0;	0,0
819,9757690429688;	346,5;	0,0;	0,0
820,0633544921875;	337,0;	0,0;	0,0
820,1509399414062;	325,25;	0,0;	0,0
820,2384643554688;	296,75;	0,0;	0,0
820,3260498046875;	301,0;	0,0;	0,0
820,4136352539062;	277,25;	0,0;	0,0
820,5010986328125;	287,5;	0,0;	0,0
820,5885620117188;	298,5;	0,0;	0,0
820,676025390625;	304,25;	0,0;	0,0
820,763427734375;	323,5;	0,0;	0,0
820,850830078125;	381,5;	0,0;	0,0
820,938232421875;	424,75;	0,0;	0,0
821,025634765625;	479,75;	0,0;	0,0
821,1129760742188;	506,5;	0,0;	0,0
821,2001953125;	467,25;	0,0;	0,0
821,2875366210938;	504,25;	0,0;	0,0
821,3748168945312;	595,75;	0,0;	0,0
821,4620361328125;	746,25;	0,0;	0,0
821,5492553710938;	1072,25;	0,0;	0,0
821,6365356445312;	1180,0;	0,0;	0,0
821,7236328125;	964,0;	0,0;	0,0
821,810791015625;	763,75;	0,0;	0,0
821,89794921875;	612,5;	0,0;	0,0
821,9850463867188;	591,0;	0,0;	0,0
822,0720825195312;	592,5;	0,0;	0,0
822,1591796875;	644,5;	0,0;	0,0
822,2462768554688;	741,75;	0,0;	0,0
822,333251953125;	766,75;	0,0;	0,0
822,4202270507812;	642,5;	0,0;	0,0
822,5072021484375;	523,25;	0,0;	0,0
822,5941162109375;	455,75;	0,0;	0,0
822,6810913085938;	406,75;	0,0;	0,0
822,7680053710938;	389,75;	0,0;	0,0
822,8547973632812;	381,25;	0,0;	0,0
822,9417114257812;	358,5;	0,0;	0,0
823,0285034179688;	344,75;	0,0;	0,0
823,1152954101562;	362,25;	0,0;	0,0
823,2021484375;	342,25;	0,0;	0,0
823,2888793945312;	322,5;	0,0;	0,0
823,3756103515625;	313,75;	0,0;	0,0
823,4623413085938;	303,75;	0,0;	0,0
823,5490112304688;	310,0;	0,0;	0,0
823,6356811523438;	306,5;	0,0;	0,0
823,7223510742188;	298,25;	0,0;	0,0
823,8090209960938;	304,25;	0,0;	0,0
823,8956298828125;	332,75;	0,0;	0,0
823,982177734375;	371,5;	0,0;	0,0
824,0687255859375;	436,75;	0,0;	0,0
824,1552124023438;	611,0;	0,0;	0,0
824,24169921875;	627,5;	0,0;	0,0
824,3283081054688;	580,75;	0,0;	0,0
824,4147338867188;	451,25;	0,0;	0,0
824,5010986328125;	412,75;	0,0;	0,0
824,5875854492188;	388,5;	0,0;	0,0
824,6740112304688;	376,25;	0,0;	0,0
824,7603149414062;	349,25;	0,0;	0,0
824,8466796875;	296,5;	0,0;	0,0
824,9330444335938;	291,75;	0,0;	0,0
825,0193481445312;	275,75;	0,0;	0,0
825,1055908203125;	292,0;	0,0;	0,0
825,1918334960938;	281,5;	0,0;	0,0
825,2780151367188;	261,25;	0,0;	0,0
825,3642578125;	255,25;	0,0;	0,0
825,4505004882812;	255,25;	0,0;	0,0
825,5366821289062;	175,5;	0,0;	0,0
825,622802734375;	160,25;	0,0;	0,0
825,7089233398438;	157,5;	0,0;	0,0
825,7949829101562;	161,5;	0,0;	0,0
825,881103515625;	162,0;	0,0;	0,0
825,9671630859375;	164,25;	0,0;	0,0
826,05322265625;	164,0;	0,0;	0,0
826,1392211914062;	172,75;	0,0;	0,0
826,22509765625;	158,75;	0,0;	0,0
826,31103515625;	175,5;	0,0;	0,0
826,3970336914062;	176,5;	0,0;	0,0
826,4829711914062;	165,5;	0,0;	0,0
826,56884765625;	166,75;	0,0;	0,0
826,65478515625;	169,25;	0,0;	0,0
826,7405395507812;	172,75;	0,0;	0,0
826,826416015625;	0,0;	0,0;	0,0
