31.5	11.25
Integration time [ms]:	1.05
Averaging Nr. [scans]:1
Smoothing Nr. [pixels]:0
Data measured with spectrometer [name]:b'2101207U1'
Wave	;Sample	;Dark	;Reference	;Scope	
[nm]	;[counts]	;[counts]	;[counts]	
 
607,3350219726562;	146,0;	0,0;	0,0
607,4614868164062;	152,75;	0,0;	0,0
607,5878295898438;	147,5;	0,0;	0,0
607,7142944335938;	156,5;	0,0;	0,0
607,8406982421875;	150,0;	0,0;	0,0
607,967041015625;	143,5;	0,0;	0,0
608,0933837890625;	147,75;	0,0;	0,0
608,2197265625;	154,25;	0,0;	0,0
608,3460083007812;	151,75;	0,0;	0,0
608,4723510742188;	146,0;	0,0;	0,0
608,5986328125;	148,25;	0,0;	0,0
608,7249755859375;	155,25;	0,0;	0,0
608,8511352539062;	152,0;	0,0;	0,0
608,9774169921875;	155,75;	0,0;	0,0
609,1036376953125;	147,5;	0,0;	0,0
609,2297973632812;	149,0;	0,0;	0,0
609,3560180664062;	271,0;	0,0;	0,0
609,4822387695312;	285,0;	0,0;	0,0
609,6083374023438;	290,25;	0,0;	0,0
609,7344970703125;	319,25;	0,0;	0,0
609,8606567382812;	345,5;	0,0;	0,0
609,9866943359375;	376,0;	0,0;	0,0
610,11279296875;	473,5;	0,0;	0,0
610,2388916015625;	869,0;	0,0;	0,0
610,3649291992188;	2662,0;	0,0;	0,0
610,490966796875;	1528,25;	0,0;	0,0
610,6170043945312;	455,0;	0,0;	0,0
610,7430419921875;	351,75;	0,0;	0,0
610,8689575195312;	315,5;	0,0;	0,0
610,9949340820312;	323,5;	0,0;	0,0
611,1209106445312;	297,5;	0,0;	0,0
611,246826171875;	300,0;	0,0;	0,0
611,3727416992188;	286,75;	0,0;	0,0
611,4987182617188;	270,25;	0,0;	0,0
611,6245727539062;	265,75;	0,0;	0,0
611,7504272460938;	268,25;	0,0;	0,0
611,8762817382812;	281,0;	0,0;	0,0
612,0020751953125;	280,75;	0,0;	0,0
612,1279296875;	311,0;	0,0;	0,0
612,2537231445312;	397,25;	0,0;	0,0
612,3794555664062;	303,5;	0,0;	0,0
612,5052490234375;	282,5;	0,0;	0,0
612,6310424804688;	263,25;	0,0;	0,0
612,7567749023438;	253,5;	0,0;	0,0
612,8824462890625;	285,0;	0,0;	0,0
613,0081787109375;	278,25;	0,0;	0,0
613,1339111328125;	279,75;	0,0;	0,0
613,259521484375;	263,0;	0,0;	0,0
613,3851928710938;	271,75;	0,0;	0,0
613,5108642578125;	271,0;	0,0;	0,0
613,6364135742188;	275,0;	0,0;	0,0
613,7620849609375;	270,25;	0,0;	0,0
613,8876953125;	253,5;	0,0;	0,0
614,01318359375;	270,25;	0,0;	0,0
614,1387939453125;	265,5;	0,0;	0,0
614,2643432617188;	284,0;	0,0;	0,0
614,3897705078125;	254,0;	0,0;	0,0
614,5152587890625;	277,25;	0,0;	0,0
614,6408081054688;	260,5;	0,0;	0,0
614,7662963867188;	277,75;	0,0;	0,0
614,8917236328125;	283,5;	0,0;	0,0
615,0171508789062;	267,5;	0,0;	0,0
615,142578125;	275,5;	0,0;	0,0
615,2679443359375;	266,25;	0,0;	0,0
615,3933715820312;	267,75;	0,0;	0,0
615,5187377929688;	282,75;	0,0;	0,0
615,6441040039062;	281,25;	0,0;	0,0
615,7693481445312;	293,75;	0,0;	0,0
615,8947143554688;	294,5;	0,0;	0,0
616,0199584960938;	297,75;	0,0;	0,0
616,145263671875;	347,25;	0,0;	0,0
616,2705688476562;	512,0;	0,0;	0,0
616,3958129882812;	336,75;	0,0;	0,0
616,5210571289062;	297,25;	0,0;	0,0
616,6463012695312;	286,25;	0,0;	0,0
616,771484375;	285,5;	0,0;	0,0
616,8966064453125;	295,0;	0,0;	0,0
617,0217895507812;	307,25;	0,0;	0,0
617,14697265625;	292,5;	0,0;	0,0
617,2720947265625;	283,0;	0,0;	0,0
617,397216796875;	296,25;	0,0;	0,0
617,5222778320312;	283,0;	0,0;	0,0
617,6473388671875;	282,0;	0,0;	0,0
617,7723999023438;	270,75;	0,0;	0,0
617,8975219726562;	280,5;	0,0;	0,0
618,0225219726562;	286,0;	0,0;	0,0
618,1475219726562;	270,5;	0,0;	0,0
618,2725219726562;	268,5;	0,0;	0,0
618,3974609375;	263,75;	0,0;	0,0
618,5224609375;	279,75;	0,0;	0,0
618,6473999023438;	272,5;	0,0;	0,0
618,7723999023438;	276,25;	0,0;	0,0
618,897216796875;	272,25;	0,0;	0,0
619,0221557617188;	277,25;	0,0;	0,0
619,1470336914062;	270,75;	0,0;	0,0
619,2718505859375;	260,75;	0,0;	0,0
619,3966674804688;	266,5;	0,0;	0,0
619,5215454101562;	284,5;	0,0;	0,0
619,6463623046875;	260,5;	0,0;	0,0
619,7711791992188;	261,75;	0,0;	0,0
619,8959350585938;	263,75;	0,0;	0,0
620,0206298828125;	264,75;	0,0;	0,0
620,1454467773438;	264,75;	0,0;	0,0
620,2702026367188;	263,25;	0,0;	0,0
620,394775390625;	267,75;	0,0;	0,0
620,51953125;	274,25;	0,0;	0,0
620,6442260742188;	265,25;	0,0;	0,0
620,7688598632812;	270,75;	0,0;	0,0
620,8934936523438;	268,5;	0,0;	0,0
621,0181274414062;	259,75;	0,0;	0,0
621,1427612304688;	273,0;	0,0;	0,0
621,2672729492188;	274,5;	0,0;	0,0
621,3919067382812;	279,75;	0,0;	0,0
621,5164794921875;	267,25;	0,0;	0,0
621,6409301757812;	277,25;	0,0;	0,0
621,7655029296875;	266,0;	0,0;	0,0
621,8900756835938;	258,25;	0,0;	0,0
622,0144653320312;	254,25;	0,0;	0,0
622,1389770507812;	257,0;	0,0;	0,0
622,2634887695312;	256,5;	0,0;	0,0
622,3878173828125;	248,5;	0,0;	0,0
622,5122680664062;	258,5;	0,0;	0,0
622,6366577148438;	246,5;	0,0;	0,0
622,7611083984375;	250,5;	0,0;	0,0
622,8854370117188;	257,75;	0,0;	0,0
623,009765625;	275,25;	0,0;	0,0
623,1341552734375;	268,75;	0,0;	0,0
623,2584228515625;	257,25;	0,0;	0,0
623,3827514648438;	273,75;	0,0;	0,0
623,507080078125;	270,75;	0,0;	0,0
623,6312866210938;	283,0;	0,0;	0,0
623,7555541992188;	261,25;	0,0;	0,0
623,8797607421875;	263,0;	0,0;	0,0
624,0039672851562;	253,75;	0,0;	0,0
624,128173828125;	269,75;	0,0;	0,0
624,2523803710938;	265,5;	0,0;	0,0
624,37646484375;	271,0;	0,0;	0,0
624,5006713867188;	273,0;	0,0;	0,0
624,624755859375;	281,75;	0,0;	0,0
624,7489624023438;	255,75;	0,0;	0,0
624,8729858398438;	271,75;	0,0;	0,0
624,9970703125;	264,0;	0,0;	0,0
625,1211547851562;	264,0;	0,0;	0,0
625,2451782226562;	278,25;	0,0;	0,0
625,3692016601562;	272,75;	0,0;	0,0
625,4932861328125;	272,75;	0,0;	0,0
625,6171875;	273,5;	0,0;	0,0
625,7412109375;	251,0;	0,0;	0,0
625,8651733398438;	275,5;	0,0;	0,0
625,9890747070312;	262,25;	0,0;	0,0
626,113037109375;	260,25;	0,0;	0,0
626,2369384765625;	265,75;	0,0;	0,0
626,3607788085938;	256,5;	0,0;	0,0
626,4846801757812;	244,25;	0,0;	0,0
626,6085815429688;	268,0;	0,0;	0,0
626,732421875;	261,0;	0,0;	0,0
626,8561401367188;	263,25;	0,0;	0,0
626,9800415039062;	256,25;	0,0;	0,0
627,1038208007812;	266,0;	0,0;	0,0
627,2275390625;	272,0;	0,0;	0,0
627,351318359375;	235,5;	0,0;	0,0
627,4750366210938;	247,0;	0,0;	0,0
627,5986938476562;	248,0;	0,0;	0,0
627,7224731445312;	268,0;	0,0;	0,0
627,84619140625;	249,0;	0,0;	0,0
627,9697875976562;	241,25;	0,0;	0,0
628,093505859375;	273,0;	0,0;	0,0
628,2171020507812;	241,0;	0,0;	0,0
628,3406982421875;	257,0;	0,0;	0,0
628,46435546875;	259,0;	0,0;	0,0
628,5879516601562;	263,5;	0,0;	0,0
628,7114868164062;	245,0;	0,0;	0,0
628,8349609375;	264,5;	0,0;	0,0
628,9585571289062;	244,5;	0,0;	0,0
629,0820922851562;	246,0;	0,0;	0,0
629,20556640625;	255,75;	0,0;	0,0
629,3290405273438;	239,0;	0,0;	0,0
629,4525146484375;	241,25;	0,0;	0,0
629,575927734375;	242,75;	0,0;	0,0
629,6994018554688;	253,5;	0,0;	0,0
629,8228149414062;	238,75;	0,0;	0,0
629,9461669921875;	253,5;	0,0;	0,0
630,0695190429688;	249,0;	0,0;	0,0
630,19287109375;	248,75;	0,0;	0,0
630,316162109375;	254,75;	0,0;	0,0
630,4395751953125;	237,25;	0,0;	0,0
630,5629272460938;	256,75;	0,0;	0,0
630,6862182617188;	261,5;	0,0;	0,0
630,8094482421875;	238,75;	0,0;	0,0
630,9326782226562;	261,75;	0,0;	0,0
631,0559692382812;	248,5;	0,0;	0,0
631,1791381835938;	251,75;	0,0;	0,0
631,3023681640625;	239,25;	0,0;	0,0
631,425537109375;	246,75;	0,0;	0,0
631,5486450195312;	247,25;	0,0;	0,0
631,6718139648438;	254,75;	0,0;	0,0
631,7949829101562;	249,75;	0,0;	0,0
631,9180908203125;	243,5;	0,0;	0,0
632,0411987304688;	242,25;	0,0;	0,0
632,164306640625;	245,5;	0,0;	0,0
632,2872924804688;	246,75;	0,0;	0,0
632,410400390625;	236,25;	0,0;	0,0
632,533447265625;	262,25;	0,0;	0,0
632,656494140625;	252,5;	0,0;	0,0
632,7794189453125;	241,25;	0,0;	0,0
632,9024047851562;	272,75;	0,0;	0,0
633,025390625;	243,5;	0,0;	0,0
633,1483154296875;	246,5;	0,0;	0,0
633,2713012695312;	257,75;	0,0;	0,0
633,3942260742188;	252,5;	0,0;	0,0
633,5170288085938;	248,25;	0,0;	0,0
633,639892578125;	245,75;	0,0;	0,0
633,7628173828125;	253,75;	0,0;	0,0
633,8856201171875;	262,75;	0,0;	0,0
634,0084838867188;	265,25;	0,0;	0,0
634,1312866210938;	271,5;	0,0;	0,0
634,2540283203125;	283,25;	0,0;	0,0
634,3768310546875;	284,25;	0,0;	0,0
634,4995727539062;	309,75;	0,0;	0,0
634,622314453125;	366,0;	0,0;	0,0
634,7449951171875;	378,25;	0,0;	0,0
634,8677368164062;	319,5;	0,0;	0,0
634,9904174804688;	278,5;	0,0;	0,0
635,1130981445312;	278,75;	0,0;	0,0
635,2357177734375;	265,0;	0,0;	0,0
635,3583984375;	244,5;	0,0;	0,0
635,48095703125;	252,75;	0,0;	0,0
635,6035766601562;	270,25;	0,0;	0,0
635,7261962890625;	252,75;	0,0;	0,0
635,8486938476562;	262,0;	0,0;	0,0
635,9712524414062;	246,75;	0,0;	0,0
636,0938110351562;	256,75;	0,0;	0,0
636,21630859375;	265,0;	0,0;	0,0
636,3388061523438;	258,75;	0,0;	0,0
636,4613037109375;	252,5;	0,0;	0,0
636,583740234375;	260,25;	0,0;	0,0
636,7061767578125;	263,25;	0,0;	0,0
636,82861328125;	270,5;	0,0;	0,0
636,9510498046875;	275,25;	0,0;	0,0
637,0734252929688;	291,75;	0,0;	0,0
637,1957397460938;	301,5;	0,0;	0,0
637,3181762695312;	273,5;	0,0;	0,0
637,4404296875;	262,75;	0,0;	0,0
637,5628051757812;	264,5;	0,0;	0,0
637,6851196289062;	256,25;	0,0;	0,0
637,807373046875;	250,25;	0,0;	0,0
637,9296264648438;	256,25;	0,0;	0,0
638,0518798828125;	259,75;	0,0;	0,0
638,1741333007812;	260,75;	0,0;	0,0
638,2963256835938;	260,5;	0,0;	0,0
638,4185791015625;	236,5;	0,0;	0,0
638,5407104492188;	252,0;	0,0;	0,0
638,662841796875;	252,25;	0,0;	0,0
638,7850341796875;	240,75;	0,0;	0,0
638,9071655273438;	251,75;	0,0;	0,0
639,0292358398438;	246,75;	0,0;	0,0
639,1513671875;	234,5;	0,0;	0,0
639,2734375;	248,5;	0,0;	0,0
639,3954467773438;	246,25;	0,0;	0,0
639,517578125;	264,75;	0,0;	0,0
639,6395874023438;	248,75;	0,0;	0,0
639,7615356445312;	255,25;	0,0;	0,0
639,883544921875;	246,75;	0,0;	0,0
640,0055541992188;	245,0;	0,0;	0,0
640,12744140625;	247,75;	0,0;	0,0
640,2493896484375;	229,75;	0,0;	0,0
640,371337890625;	243,0;	0,0;	0,0
640,4932250976562;	264,25;	0,0;	0,0
640,6151733398438;	231,0;	0,0;	0,0
640,7369995117188;	234,25;	0,0;	0,0
640,85888671875;	236,25;	0,0;	0,0
640,9806518554688;	244,0;	0,0;	0,0
641,1024780273438;	240,5;	0,0;	0,0
641,2243041992188;	253,0;	0,0;	0,0
641,3460693359375;	259,0;	0,0;	0,0
641,4678344726562;	248,5;	0,0;	0,0
641,589599609375;	241,0;	0,0;	0,0
641,7112426757812;	238,25;	0,0;	0,0
641,8330078125;	234,5;	0,0;	0,0
641,9547119140625;	242,5;	0,0;	0,0
642,0763549804688;	234,25;	0,0;	0,0
642,197998046875;	242,5;	0,0;	0,0
642,3197021484375;	241,5;	0,0;	0,0
642,4412841796875;	242,75;	0,0;	0,0
642,5628662109375;	255,75;	0,0;	0,0
642,6845092773438;	248,0;	0,0;	0,0
642,8060913085938;	248,25;	0,0;	0,0
642,9276123046875;	246,75;	0,0;	0,0
643,0491943359375;	247,75;	0,0;	0,0
643,1707153320312;	243,25;	0,0;	0,0
643,2921142578125;	245,0;	0,0;	0,0
643,4136352539062;	238,5;	0,0;	0,0
643,5350952148438;	249,75;	0,0;	0,0
643,6565551757812;	247,75;	0,0;	0,0
643,7780151367188;	264,0;	0,0;	0,0
643,8994140625;	381,5;	0,0;	0,0
644,020751953125;	357,75;	0,0;	0,0
644,1421508789062;	239,75;	0,0;	0,0
644,2635498046875;	234,75;	0,0;	0,0
644,3848876953125;	256,5;	0,0;	0,0
644,5061645507812;	247,75;	0,0;	0,0
644,6275024414062;	224,25;	0,0;	0,0
644,748779296875;	252,75;	0,0;	0,0
644,8700561523438;	243,75;	0,0;	0,0
644,9913330078125;	265,75;	0,0;	0,0
645,112548828125;	269,25;	0,0;	0,0
645,2337646484375;	256,5;	0,0;	0,0
645,3549194335938;	261,25;	0,0;	0,0
645,4761962890625;	248,25;	0,0;	0,0
645,5972900390625;	272,75;	0,0;	0,0
645,7184448242188;	271,0;	0,0;	0,0
645,839599609375;	266,75;	0,0;	0,0
645,960693359375;	264,0;	0,0;	0,0
646,081787109375;	265,5;	0,0;	0,0
646,202880859375;	294,25;	0,0;	0,0
646,3238525390625;	373,0;	0,0;	0,0
646,4449462890625;	281,25;	0,0;	0,0
646,5659790039062;	274,5;	0,0;	0,0
646,6870727539062;	272,75;	0,0;	0,0
646,8079833984375;	272,0;	0,0;	0,0
646,928955078125;	274,5;	0,0;	0,0
647,0499877929688;	269,5;	0,0;	0,0
647,1708374023438;	283,75;	0,0;	0,0
647,291748046875;	281,25;	0,0;	0,0
647,4127197265625;	271,5;	0,0;	0,0
647,5335083007812;	285,75;	0,0;	0,0
647,6544189453125;	274,25;	0,0;	0,0
647,7752685546875;	290,25;	0,0;	0,0
647,8961181640625;	288,5;	0,0;	0,0
648,0169067382812;	265,25;	0,0;	0,0
648,1376953125;	287,75;	0,0;	0,0
648,2584838867188;	297,5;	0,0;	0,0
648,3792114257812;	296,5;	0,0;	0,0
648,5;	294,25;	0,0;	0,0
648,6207275390625;	299,0;	0,0;	0,0
648,7413940429688;	285,25;	0,0;	0,0
648,8621215820312;	292,25;	0,0;	0,0
648,9827880859375;	288,75;	0,0;	0,0
649,1033935546875;	294,0;	0,0;	0,0
649,2240600585938;	301,0;	0,0;	0,0
649,3446655273438;	333,0;	0,0;	0,0
649,4652709960938;	350,5;	0,0;	0,0
649,5858764648438;	287,75;	0,0;	0,0
649,7064208984375;	293,5;	0,0;	0,0
649,8269653320312;	307,0;	0,0;	0,0
649,947509765625;	295,0;	0,0;	0,0
650,0680541992188;	284,75;	0,0;	0,0
650,1884765625;	278,75;	0,0;	0,0
650,3090209960938;	285,75;	0,0;	0,0
650,4295043945312;	282,0;	0,0;	0,0
650,5499267578125;	294,5;	0,0;	0,0
650,6702880859375;	281,75;	0,0;	0,0
650,7907104492188;	286,25;	0,0;	0,0
650,9111328125;	281,75;	0,0;	0,0
651,031494140625;	287,0;	0,0;	0,0
651,15185546875;	286,25;	0,0;	0,0
651,2721557617188;	294,25;	0,0;	0,0
651,3924560546875;	292,0;	0,0;	0,0
651,5128173828125;	303,75;	0,0;	0,0
651,633056640625;	281,0;	0,0;	0,0
651,7532958984375;	280,5;	0,0;	0,0
651,8735961914062;	287,5;	0,0;	0,0
651,9937744140625;	294,0;	0,0;	0,0
652,1140747070312;	287,25;	0,0;	0,0
652,2342529296875;	290,0;	0,0;	0,0
652,3543701171875;	292,25;	0,0;	0,0
652,474609375;	285,25;	0,0;	0,0
652,5946655273438;	304,0;	0,0;	0,0
652,71484375;	301,5;	0,0;	0,0
652,8348999023438;	310,0;	0,0;	0,0
652,9550170898438;	312,0;	0,0;	0,0
653,0750732421875;	312,0;	0,0;	0,0
653,1951293945312;	297,5;	0,0;	0,0
653,3151245117188;	314,75;	0,0;	0,0
653,4351196289062;	332,5;	0,0;	0,0
653,55517578125;	318,5;	0,0;	0,0
653,6751098632812;	307,0;	0,0;	0,0
653,7950439453125;	329,75;	0,0;	0,0
653,9150390625;	337,25;	0,0;	0,0
654,034912109375;	335,75;	0,0;	0,0
654,1548461914062;	336,25;	0,0;	0,0
654,2747802734375;	362,5;	0,0;	0,0
654,3946533203125;	363,25;	0,0;	0,0
654,5144653320312;	374,5;	0,0;	0,0
654,63427734375;	365,75;	0,0;	0,0
654,7542114257812;	384,0;	0,0;	0,0
654,8739624023438;	401,25;	0,0;	0,0
654,9937133789062;	423,5;	0,0;	0,0
655,113525390625;	433,75;	0,0;	0,0
655,2332153320312;	440,75;	0,0;	0,0
655,3529663085938;	493,0;	0,0;	0,0
655,47265625;	499,5;	0,0;	0,0
655,5923461914062;	521,75;	0,0;	0,0
655,7120361328125;	593,25;	0,0;	0,0
655,8316650390625;	608,25;	0,0;	0,0
655,9512939453125;	667,0;	0,0;	0,0
656,0709228515625;	742,25;	0,0;	0,0
656,1905517578125;	809,75;	0,0;	0,0
656,3101196289062;	893,0;	0,0;	0,0
656,4296875;	870,5;	0,0;	0,0
656,5492553710938;	826,0;	0,0;	0,0
656,6688232421875;	732,0;	0,0;	0,0
656,788330078125;	682,25;	0,0;	0,0
656,9077758789062;	648,0;	0,0;	0,0
657,0272827148438;	604,25;	0,0;	0,0
657,146728515625;	566,0;	0,0;	0,0
657,2661743164062;	516,5;	0,0;	0,0
657,3856811523438;	499,5;	0,0;	0,0
657,5050048828125;	474,0;	0,0;	0,0
657,6243896484375;	452,5;	0,0;	0,0
657,7438354492188;	454,0;	0,0;	0,0
657,8630981445312;	433,25;	0,0;	0,0
657,9824829101562;	412,25;	0,0;	0,0
658,101806640625;	400,5;	0,0;	0,0
658,2211303710938;	405,75;	0,0;	0,0
658,3403930664062;	393,5;	0,0;	0,0
658,4596557617188;	372,0;	0,0;	0,0
658,5789184570312;	349,0;	0,0;	0,0
658,6980590820312;	347,75;	0,0;	0,0
658,8173217773438;	368,25;	0,0;	0,0
658,9365234375;	346,75;	0,0;	0,0
659,0556640625;	333,0;	0,0;	0,0
659,1748657226562;	325,0;	0,0;	0,0
659,2940063476562;	318,75;	0,0;	0,0
659,4130859375;	345,0;	0,0;	0,0
659,5321655273438;	309,75;	0,0;	0,0
659,6513061523438;	310,5;	0,0;	0,0
659,7703247070312;	339,5;	0,0;	0,0
659,889404296875;	310,25;	0,0;	0,0
660,0084228515625;	296,0;	0,0;	0,0
660,12744140625;	297,75;	0,0;	0,0
660,2464599609375;	295,75;	0,0;	0,0
660,3654174804688;	299,25;	0,0;	0,0
660,484375;	301,5;	0,0;	0,0
660,603271484375;	309,0;	0,0;	0,0
660,7222900390625;	309,25;	0,0;	0,0
660,8411865234375;	290,25;	0,0;	0,0
660,9600219726562;	303,0;	0,0;	0,0
661,0789184570312;	302,25;	0,0;	0,0
661,19775390625;	286,0;	0,0;	0,0
661,3165893554688;	288,5;	0,0;	0,0
661,4354248046875;	293,5;	0,0;	0,0
661,55419921875;	280,0;	0,0;	0,0
661,6729736328125;	288,0;	0,0;	0,0
661,791748046875;	265,5;	0,0;	0,0
661,9105224609375;	274,75;	0,0;	0,0
662,0292358398438;	262,75;	0,0;	0,0
662,1478881835938;	269,0;	0,0;	0,0
662,2666015625;	263,5;	0,0;	0,0
662,3853149414062;	265,25;	0,0;	0,0
662,50390625;	271,25;	0,0;	0,0
662,62255859375;	265,25;	0,0;	0,0
662,7411499023438;	264,5;	0,0;	0,0
662,8597412109375;	258,25;	0,0;	0,0
662,9783325195312;	256,5;	0,0;	0,0
663,096923828125;	254,5;	0,0;	0,0
663,2153930664062;	251,0;	0,0;	0,0
663,333984375;	268,75;	0,0;	0,0
663,4524536132812;	260,0;	0,0;	0,0
663,5709228515625;	256,75;	0,0;	0,0
663,6893920898438;	261,75;	0,0;	0,0
663,8079223632812;	266,5;	0,0;	0,0
663,9263305664062;	259,25;	0,0;	0,0
664,0447387695312;	280,0;	0,0;	0,0
664,1631469726562;	269,75;	0,0;	0,0
664,2815551757812;	252,25;	0,0;	0,0
664,3998413085938;	249,75;	0,0;	0,0
664,5182495117188;	265,0;	0,0;	0,0
664,6365966796875;	243,0;	0,0;	0,0
664,7548217773438;	267,25;	0,0;	0,0
664,8731689453125;	264,5;	0,0;	0,0
664,991455078125;	249,25;	0,0;	0,0
665,1096801757812;	250,5;	0,0;	0,0
665,2279663085938;	266,0;	0,0;	0,0
665,34619140625;	265,0;	0,0;	0,0
665,4642944335938;	273,75;	0,0;	0,0
665,58251953125;	281,0;	0,0;	0,0
665,70068359375;	268,75;	0,0;	0,0
665,81884765625;	277,5;	0,0;	0,0
665,9369506835938;	275,5;	0,0;	0,0
666,0551147460938;	253,25;	0,0;	0,0
666,1732177734375;	271,0;	0,0;	0,0
666,291259765625;	270,75;	0,0;	0,0
666,4093017578125;	263,25;	0,0;	0,0
666,5274047851562;	259,25;	0,0;	0,0
666,6453857421875;	262,0;	0,0;	0,0
666,7633056640625;	268,5;	0,0;	0,0
666,88134765625;	256,75;	0,0;	0,0
666,999267578125;	259,0;	0,0;	0,0
667,1172485351562;	247,0;	0,0;	0,0
667,2351684570312;	262,5;	0,0;	0,0
667,3530883789062;	255,25;	0,0;	0,0
667,470947265625;	260,25;	0,0;	0,0
667,5888671875;	245,5;	0,0;	0,0
667,7066650390625;	249,0;	0,0;	0,0
667,8245239257812;	266,25;	0,0;	0,0
667,9423217773438;	259,5;	0,0;	0,0
668,0601806640625;	239,5;	0,0;	0,0
668,177978515625;	248,75;	0,0;	0,0
668,2957153320312;	248,0;	0,0;	0,0
668,4135131835938;	248,5;	0,0;	0,0
668,5311279296875;	247,25;	0,0;	0,0
668,64892578125;	242,25;	0,0;	0,0
668,7666015625;	255,25;	0,0;	0,0
668,8842163085938;	248,5;	0,0;	0,0
669,0018920898438;	275,75;	0,0;	0,0
669,1195678710938;	245,5;	0,0;	0,0
669,2371215820312;	246,0;	0,0;	0,0
669,354736328125;	249,0;	0,0;	0,0
669,4723510742188;	263,25;	0,0;	0,0
669,5899658203125;	287,75;	0,0;	0,0
669,7073974609375;	256,25;	0,0;	0,0
669,824951171875;	272,5;	0,0;	0,0
669,9424438476562;	291,5;	0,0;	0,0
670,0599365234375;	288,5;	0,0;	0,0
670,1774291992188;	348,75;	0,0;	0,0
670,294921875;	384,5;	0,0;	0,0
670,4122924804688;	461,75;	0,0;	0,0
670,5297241210938;	737,75;	0,0;	0,0
670,647216796875;	1954,25;	0,0;	0,0
670,7645263671875;	7461,25;	0,0;	0,0
670,8818969726562;	6435,25;	0,0;	0,0
670,999267578125;	1411,75;	0,0;	0,0
671,1165771484375;	652,25;	0,0;	0,0
671,2338256835938;	442,5;	0,0;	0,0
671,3511352539062;	383,0;	0,0;	0,0
671,4683837890625;	348,0;	0,0;	0,0
671,585693359375;	315,25;	0,0;	0,0
671,7029418945312;	316,0;	0,0;	0,0
671,8201904296875;	293,25;	0,0;	0,0
671,9373779296875;	291,0;	0,0;	0,0
672,0545043945312;	278,0;	0,0;	0,0
672,1716918945312;	264,0;	0,0;	0,0
672,288818359375;	252,5;	0,0;	0,0
672,4059448242188;	270,0;	0,0;	0,0
672,5230712890625;	265,5;	0,0;	0,0
672,64013671875;	243,0;	0,0;	0,0
672,7572021484375;	262,5;	0,0;	0,0
672,8743286132812;	241,75;	0,0;	0,0
672,9912719726562;	249,5;	0,0;	0,0
673,1083374023438;	241,75;	0,0;	0,0
673,225341796875;	247,0;	0,0;	0,0
673,3423461914062;	245,25;	0,0;	0,0
673,459228515625;	253,25;	0,0;	0,0
673,576171875;	248,25;	0,0;	0,0
673,693115234375;	248,75;	0,0;	0,0
673,8099975585938;	264,0;	0,0;	0,0
673,9268798828125;	239,0;	0,0;	0,0
674,0438232421875;	255,5;	0,0;	0,0
674,16064453125;	235,0;	0,0;	0,0
674,2774658203125;	228,75;	0,0;	0,0
674,394287109375;	237,5;	0,0;	0,0
674,5110473632812;	243,5;	0,0;	0,0
674,6278686523438;	248,75;	0,0;	0,0
674,74462890625;	234,5;	0,0;	0,0
674,861328125;	230,25;	0,0;	0,0
674,9780883789062;	229,75;	0,0;	0,0
675,0947875976562;	244,25;	0,0;	0,0
675,21142578125;	223,25;	0,0;	0,0
675,328125;	245,25;	0,0;	0,0
675,44482421875;	226,5;	0,0;	0,0
675,5614624023438;	225,25;	0,0;	0,0
675,677978515625;	234,5;	0,0;	0,0
675,7946166992188;	243,0;	0,0;	0,0
675,9111938476562;	234,0;	0,0;	0,0
676,0277099609375;	230,25;	0,0;	0,0
676,144287109375;	227,5;	0,0;	0,0
676,2608032226562;	226,25;	0,0;	0,0
676,3772583007812;	227,5;	0,0;	0,0
676,4937744140625;	231,5;	0,0;	0,0
676,6102294921875;	210,5;	0,0;	0,0
676,7266845703125;	223,75;	0,0;	0,0
676,8431396484375;	226,0;	0,0;	0,0
676,9595336914062;	234,75;	0,0;	0,0
677,0759887695312;	229,25;	0,0;	0,0
677,1922607421875;	235,75;	0,0;	0,0
677,3086547851562;	228,75;	0,0;	0,0
677,4249267578125;	224,0;	0,0;	0,0
677,541259765625;	228,75;	0,0;	0,0
677,6575927734375;	219,0;	0,0;	0,0
677,7738647460938;	228,75;	0,0;	0,0
677,8900756835938;	230,25;	0,0;	0,0
678,0064086914062;	236,0;	0,0;	0,0
678,1226196289062;	220,75;	0,0;	0,0
678,23876953125;	231,0;	0,0;	0,0
678,35498046875;	230,25;	0,0;	0,0
678,47119140625;	215,5;	0,0;	0,0
678,5872802734375;	231,0;	0,0;	0,0
678,7034301757812;	216,25;	0,0;	0,0
678,819580078125;	227,5;	0,0;	0,0
678,9356079101562;	211,0;	0,0;	0,0
679,0516967773438;	221,75;	0,0;	0,0
679,1677856445312;	227,0;	0,0;	0,0
679,2838745117188;	230,5;	0,0;	0,0
679,3998413085938;	224,25;	0,0;	0,0
679,515869140625;	222,5;	0,0;	0,0
679,6318969726562;	219,25;	0,0;	0,0
679,7477416992188;	228,0;	0,0;	0,0
679,8637084960938;	232,75;	0,0;	0,0
679,9796752929688;	234,5;	0,0;	0,0
680,0955810546875;	218,75;	0,0;	0,0
680,21142578125;	233,0;	0,0;	0,0
680,3273315429688;	215,0;	0,0;	0,0
680,4431762695312;	216,25;	0,0;	0,0
680,5590209960938;	219,75;	0,0;	0,0
680,6748657226562;	232,75;	0,0;	0,0
680,7906494140625;	228,5;	0,0;	0,0
680,9064331054688;	221,5;	0,0;	0,0
681,0221557617188;	222,5;	0,0;	0,0
681,137939453125;	223,75;	0,0;	0,0
681,2536010742188;	209,75;	0,0;	0,0
681,369384765625;	235,75;	0,0;	0,0
681,4850463867188;	220,75;	0,0;	0,0
681,6007080078125;	218,25;	0,0;	0,0
681,7163696289062;	213,25;	0,0;	0,0
681,83203125;	233,25;	0,0;	0,0
681,9475708007812;	213,25;	0,0;	0,0
682,0631713867188;	218,25;	0,0;	0,0
682,1787719726562;	210,0;	0,0;	0,0
682,2943115234375;	231,5;	0,0;	0,0
682,409912109375;	216,5;	0,0;	0,0
682,5254516601562;	221,0;	0,0;	0,0
682,640869140625;	219,0;	0,0;	0,0
682,7564086914062;	222,0;	0,0;	0,0
682,8718872070312;	225,25;	0,0;	0,0
682,9873657226562;	229,25;	0,0;	0,0
683,1027221679688;	216,0;	0,0;	0,0
683,2181396484375;	233,0;	0,0;	0,0
683,33349609375;	220,0;	0,0;	0,0
683,4488525390625;	227,5;	0,0;	0,0
683,5642700195312;	222,5;	0,0;	0,0
683,6796264648438;	204,5;	0,0;	0,0
683,7948608398438;	230,5;	0,0;	0,0
683,91015625;	219,5;	0,0;	0,0
684,0255126953125;	232,75;	0,0;	0,0
684,1406860351562;	229,25;	0,0;	0,0
684,2559814453125;	228,25;	0,0;	0,0
684,3712158203125;	229,25;	0,0;	0,0
684,4864501953125;	224,75;	0,0;	0,0
684,6016235351562;	220,75;	0,0;	0,0
684,7167358398438;	218,5;	0,0;	0,0
684,8318481445312;	228,0;	0,0;	0,0
684,947021484375;	220,0;	0,0;	0,0
685,0621337890625;	237,75;	0,0;	0,0
685,1773071289062;	220,25;	0,0;	0,0
685,2922973632812;	225,25;	0,0;	0,0
685,4073486328125;	224,5;	0,0;	0,0
685,5223999023438;	218,5;	0,0;	0,0
685,637451171875;	214,75;	0,0;	0,0
685,75244140625;	219,5;	0,0;	0,0
685,867431640625;	222,5;	0,0;	0,0
685,9823608398438;	204,25;	0,0;	0,0
686,0972900390625;	217,25;	0,0;	0,0
686,2122192382812;	227,25;	0,0;	0,0
686,3270874023438;	200,75;	0,0;	0,0
686,4420166015625;	212,75;	0,0;	0,0
686,556884765625;	211,5;	0,0;	0,0
686,6717529296875;	201,0;	0,0;	0,0
686,7865600585938;	203,0;	0,0;	0,0
686,9013671875;	207,25;	0,0;	0,0
687,0161743164062;	216,25;	0,0;	0,0
687,1309204101562;	238,25;	0,0;	0,0
687,2457275390625;	220,0;	0,0;	0,0
687,3604125976562;	220,0;	0,0;	0,0
687,4751586914062;	221,0;	0,0;	0,0
687,5899047851562;	221,5;	0,0;	0,0
687,7045288085938;	226,5;	0,0;	0,0
687,8192138671875;	219,5;	0,0;	0,0
687,933837890625;	221,5;	0,0;	0,0
688,0485229492188;	231,0;	0,0;	0,0
688,1630859375;	217,25;	0,0;	0,0
688,2776489257812;	212,75;	0,0;	0,0
688,3922119140625;	200,75;	0,0;	0,0
688,5067138671875;	225,25;	0,0;	0,0
688,621337890625;	218,0;	0,0;	0,0
688,73583984375;	226,0;	0,0;	0,0
688,850341796875;	207,25;	0,0;	0,0
688,9647216796875;	211,25;	0,0;	0,0
689,0792236328125;	222,0;	0,0;	0,0
689,1937255859375;	224,0;	0,0;	0,0
689,30810546875;	211,0;	0,0;	0,0
689,4224853515625;	221,0;	0,0;	0,0
689,5369262695312;	220,5;	0,0;	0,0
689,6512451171875;	218,5;	0,0;	0,0
689,7655639648438;	211,5;	0,0;	0,0
689,8799438476562;	203,5;	0,0;	0,0
689,9942016601562;	203,5;	0,0;	0,0
690,1084594726562;	212,25;	0,0;	0,0
690,2227783203125;	225,25;	0,0;	0,0
690,3370361328125;	229,25;	0,0;	0,0
690,4512329101562;	211,75;	0,0;	0,0
690,5654296875;	210,25;	0,0;	0,0
690,6796875;	216,0;	0,0;	0,0
690,7938232421875;	211,5;	0,0;	0,0
690,907958984375;	218,0;	0,0;	0,0
691,0221557617188;	219,75;	0,0;	0,0
691,1361694335938;	219,0;	0,0;	0,0
691,2503662109375;	221,0;	0,0;	0,0
691,3643798828125;	218,75;	0,0;	0,0
691,4784545898438;	216,5;	0,0;	0,0
691,592529296875;	221,75;	0,0;	0,0
691,7066040039062;	216,5;	0,0;	0,0
691,8206176757812;	225,5;	0,0;	0,0
691,9345092773438;	209,75;	0,0;	0,0
692,0484619140625;	227,25;	0,0;	0,0
692,1624145507812;	219,25;	0,0;	0,0
692,2763671875;	219,25;	0,0;	0,0
692,3903198242188;	236,75;	0,0;	0,0
692,5042114257812;	216,75;	0,0;	0,0
692,6180419921875;	227,0;	0,0;	0,0
692,73193359375;	210,0;	0,0;	0,0
692,8457641601562;	210,0;	0,0;	0,0
692,9595336914062;	216,25;	0,0;	0,0
693,0733642578125;	219,75;	0,0;	0,0
693,1871948242188;	226,5;	0,0;	0,0
693,3009033203125;	218,5;	0,0;	0,0
693,4146118164062;	233,5;	0,0;	0,0
693,5283813476562;	231,0;	0,0;	0,0
693,6420288085938;	211,25;	0,0;	0,0
693,7557373046875;	230,75;	0,0;	0,0
693,869384765625;	215,75;	0,0;	0,0
693,9830932617188;	231,25;	0,0;	0,0
694,0966186523438;	226,0;	0,0;	0,0
694,2102661132812;	220,5;	0,0;	0,0
694,3238525390625;	220,75;	0,0;	0,0
694,4374389648438;	209,75;	0,0;	0,0
694,5509643554688;	219,0;	0,0;	0,0
694,66455078125;	221,0;	0,0;	0,0
694,7780151367188;	223,25;	0,0;	0,0
694,8915405273438;	223,25;	0,0;	0,0
695,0050659179688;	238,25;	0,0;	0,0
695,1184692382812;	231,5;	0,0;	0,0
695,2318725585938;	206,0;	0,0;	0,0
695,3453369140625;	233,0;	0,0;	0,0
695,458740234375;	232,5;	0,0;	0,0
695,5721435546875;	229,0;	0,0;	0,0
695,6854858398438;	233,25;	0,0;	0,0
695,798828125;	233,0;	0,0;	0,0
695,9121704101562;	234,5;	0,0;	0,0
696,0254516601562;	225,25;	0,0;	0,0
696,1387329101562;	224,0;	0,0;	0,0
696,251953125;	225,5;	0,0;	0,0
696,365234375;	214,0;	0,0;	0,0
696,478515625;	227,75;	0,0;	0,0
696,5916748046875;	230,0;	0,0;	0,0
696,704833984375;	230,5;	0,0;	0,0
696,8180541992188;	231,25;	0,0;	0,0
696,9312133789062;	229,0;	0,0;	0,0
697,0443115234375;	228,25;	0,0;	0,0
697,157470703125;	227,0;	0,0;	0,0
697,2705078125;	211,25;	0,0;	0,0
697,3836669921875;	215,5;	0,0;	0,0
697,4967041015625;	232,5;	0,0;	0,0
697,6098022460938;	220,0;	0,0;	0,0
697,7227172851562;	227,5;	0,0;	0,0
697,8357543945312;	231,5;	0,0;	0,0
697,9487915039062;	212,75;	0,0;	0,0
698,0617065429688;	240,75;	0,0;	0,0
698,1746215820312;	228,5;	0,0;	0,0
698,28759765625;	213,25;	0,0;	0,0
698,4004516601562;	216,25;	0,0;	0,0
698,5133666992188;	217,75;	0,0;	0,0
698,626220703125;	212,75;	0,0;	0,0
698,739013671875;	239,75;	0,0;	0,0
698,8518676757812;	229,5;	0,0;	0,0
698,9647216796875;	221,0;	0,0;	0,0
699,0775146484375;	239,25;	0,0;	0,0
699,1902465820312;	217,25;	0,0;	0,0
699,3030395507812;	228,25;	0,0;	0,0
699,415771484375;	235,75;	0,0;	0,0
699,5284423828125;	225,0;	0,0;	0,0
699,6411743164062;	214,5;	0,0;	0,0
699,75390625;	235,5;	0,0;	0,0
699,8665161132812;	229,0;	0,0;	0,0
699,9791870117188;	229,25;	0,0;	0,0
700,091796875;	237,5;	0,0;	0,0
700,204345703125;	209,75;	0,0;	0,0
700,3169555664062;	215,75;	0,0;	0,0
700,4295654296875;	229,0;	0,0;	0,0
700,5420532226562;	230,5;	0,0;	0,0
700,6546630859375;	216,75;	0,0;	0,0
700,7671508789062;	229,25;	0,0;	0,0
700,8795776367188;	216,25;	0,0;	0,0
700,9920654296875;	228,5;	0,0;	0,0
701,1044921875;	236,25;	0,0;	0,0
701,2169799804688;	224,25;	0,0;	0,0
701,329345703125;	218,5;	0,0;	0,0
701,4417724609375;	222,0;	0,0;	0,0
701,5541381835938;	235,25;	0,0;	0,0
701,66650390625;	227,0;	0,0;	0,0
701,7788696289062;	242,5;	0,0;	0,0
701,8911743164062;	228,25;	0,0;	0,0
702,0033569335938;	231,5;	0,0;	0,0
702,11572265625;	235,0;	0,0;	0,0
702,2279663085938;	218,5;	0,0;	0,0
702,3402099609375;	225,75;	0,0;	0,0
702,452392578125;	233,0;	0,0;	0,0
702,5646362304688;	223,75;	0,0;	0,0
702,6768188476562;	228,0;	0,0;	0,0
702,7889404296875;	220,25;	0,0;	0,0
702,901123046875;	220,25;	0,0;	0,0
703,01318359375;	217,5;	0,0;	0,0
703,1253662109375;	208,75;	0,0;	0,0
703,2374267578125;	227,5;	0,0;	0,0
703,3494873046875;	238,0;	0,0;	0,0
703,4615478515625;	225,5;	0,0;	0,0
703,5735473632812;	229,75;	0,0;	0,0
703,6856079101562;	228,75;	0,0;	0,0
703,7975463867188;	233,75;	0,0;	0,0
703,9095458984375;	229,5;	0,0;	0,0
704,0215454101562;	232,75;	0,0;	0,0
704,1334228515625;	248,25;	0,0;	0,0
704,245361328125;	248,25;	0,0;	0,0
704,3572387695312;	235,75;	0,0;	0,0
704,4691162109375;	217,25;	0,0;	0,0
704,5809936523438;	228,25;	0,0;	0,0
704,6928100585938;	221,0;	0,0;	0,0
704,8046264648438;	228,5;	0,0;	0,0
704,9163818359375;	224,75;	0,0;	0,0
705,0281982421875;	223,5;	0,0;	0,0
705,139892578125;	227,0;	0,0;	0,0
705,2516479492188;	229,5;	0,0;	0,0
705,3634643554688;	220,25;	0,0;	0,0
705,4751586914062;	225,25;	0,0;	0,0
705,5867919921875;	245,25;	0,0;	0,0
705,6984252929688;	231,0;	0,0;	0,0
705,8101806640625;	225,25;	0,0;	0,0
705,9216918945312;	232,5;	0,0;	0,0
706,0333251953125;	224,5;	0,0;	0,0
706,1449584960938;	231,0;	0,0;	0,0
706,2564697265625;	215,5;	0,0;	0,0
706,3680419921875;	219,5;	0,0;	0,0
706,4795532226562;	228,75;	0,0;	0,0
706,5910034179688;	229,25;	0,0;	0,0
706,7025756835938;	227,0;	0,0;	0,0
706,8140869140625;	236,75;	0,0;	0,0
706,925537109375;	216,75;	0,0;	0,0
707,0369262695312;	212,75;	0,0;	0,0
707,1483154296875;	221,0;	0,0;	0,0
707,259765625;	207,0;	0,0;	0,0
707,37109375;	221,25;	0,0;	0,0
707,4824829101562;	210,25;	0,0;	0,0
707,5938720703125;	209,25;	0,0;	0,0
707,705078125;	207,5;	0,0;	0,0
707,81640625;	208,0;	0,0;	0,0
707,927734375;	210,5;	0,0;	0,0
708,0389404296875;	208,0;	0,0;	0,0
708,1502075195312;	211,5;	0,0;	0,0
708,2614135742188;	227,75;	0,0;	0,0
708,3726806640625;	214,0;	0,0;	0,0
708,4837646484375;	214,25;	0,0;	0,0
708,594970703125;	216,5;	0,0;	0,0
708,7061157226562;	211,75;	0,0;	0,0
708,8171997070312;	204,75;	0,0;	0,0
708,9283447265625;	209,0;	0,0;	0,0
709,0394287109375;	207,0;	0,0;	0,0
709,1504516601562;	227,25;	0,0;	0,0
709,2615356445312;	205,75;	0,0;	0,0
709,3726196289062;	218,25;	0,0;	0,0
709,4835815429688;	214,0;	0,0;	0,0
709,5946044921875;	214,0;	0,0;	0,0
709,7055053710938;	220,0;	0,0;	0,0
709,81640625;	223,25;	0,0;	0,0
709,9273681640625;	200,5;	0,0;	0,0
710,038330078125;	216,5;	0,0;	0,0
710,1492309570312;	213,0;	0,0;	0,0
710,2600708007812;	210,5;	0,0;	0,0
710,3709716796875;	205,0;	0,0;	0,0
710,4818115234375;	209,25;	0,0;	0,0
710,5925903320312;	198,25;	0,0;	0,0
710,7034301757812;	215,5;	0,0;	0,0
710,8141479492188;	218,75;	0,0;	0,0
710,9249267578125;	200,0;	0,0;	0,0
711,03564453125;	211,5;	0,0;	0,0
711,1463623046875;	213,0;	0,0;	0,0
711,2570190429688;	210,25;	0,0;	0,0
711,3677368164062;	199,25;	0,0;	0,0
711,4784545898438;	213,0;	0,0;	0,0
711,5889892578125;	211,25;	0,0;	0,0
711,6996459960938;	206,0;	0,0;	0,0
711,8102416992188;	211,5;	0,0;	0,0
711,9208374023438;	229,5;	0,0;	0,0
712,0313720703125;	225,0;	0,0;	0,0
712,1419677734375;	215,5;	0,0;	0,0
712,25244140625;	213,5;	0,0;	0,0
712,3629760742188;	219,25;	0,0;	0,0
712,4735107421875;	208,25;	0,0;	0,0
712,5839233398438;	212,5;	0,0;	0,0
712,6943359375;	207,75;	0,0;	0,0
712,8048095703125;	204,25;	0,0;	0,0
712,9152221679688;	207,5;	0,0;	0,0
713,0255737304688;	211,0;	0,0;	0,0
713,1359252929688;	196,25;	0,0;	0,0
713,246337890625;	210,25;	0,0;	0,0
713,3566284179688;	205,5;	0,0;	0,0
713,4669799804688;	219,75;	0,0;	0,0
713,5772705078125;	206,0;	0,0;	0,0
713,6875;	210,5;	0,0;	0,0
713,7977294921875;	206,0;	0,0;	0,0
713,9080200195312;	215,75;	0,0;	0,0
714,0182495117188;	216,75;	0,0;	0,0
714,12841796875;	233,5;	0,0;	0,0
714,2385864257812;	210,25;	0,0;	0,0
714,3487548828125;	217,0;	0,0;	0,0
714,4588623046875;	205,75;	0,0;	0,0
714,5690307617188;	215,75;	0,0;	0,0
714,6791381835938;	225,75;	0,0;	0,0
714,7891235351562;	288,5;	0,0;	0,0
714,8992309570312;	254,0;	0,0;	0,0
715,00927734375;	224,75;	0,0;	0,0
715,1192626953125;	215,25;	0,0;	0,0
715,229248046875;	233,75;	0,0;	0,0
715,3392944335938;	231,75;	0,0;	0,0
715,44921875;	233,0;	0,0;	0,0
715,5591430664062;	265,75;	0,0;	0,0
715,6690673828125;	310,0;	0,0;	0,0
715,7789916992188;	324,25;	0,0;	0,0
715,8888549804688;	297,25;	0,0;	0,0
715,9987182617188;	267,5;	0,0;	0,0
716,108642578125;	252,75;	0,0;	0,0
716,2183837890625;	255,0;	0,0;	0,0
716,3281860351562;	237,0;	0,0;	0,0
716,43798828125;	227,5;	0,0;	0,0
716,5477294921875;	232,25;	0,0;	0,0
716,657470703125;	223,25;	0,0;	0,0
716,7672119140625;	233,0;	0,0;	0,0
716,8768920898438;	230,5;	0,0;	0,0
716,9866333007812;	221,25;	0,0;	0,0
717,0963134765625;	231,0;	0,0;	0,0
717,2058715820312;	224,5;	0,0;	0,0
717,3155517578125;	212,0;	0,0;	0,0
717,4251708984375;	220,75;	0,0;	0,0
717,5347290039062;	215,0;	0,0;	0,0
717,644287109375;	214,0;	0,0;	0,0
717,75390625;	212,75;	0,0;	0,0
717,8634033203125;	218,5;	0,0;	0,0
717,9728393554688;	211,75;	0,0;	0,0
718,0823974609375;	222,0;	0,0;	0,0
718,19189453125;	213,5;	0,0;	0,0
718,30126953125;	217,25;	0,0;	0,0
718,4107666015625;	205,25;	0,0;	0,0
718,5202026367188;	214,25;	0,0;	0,0
718,6295166015625;	214,5;	0,0;	0,0
718,7388916015625;	210,25;	0,0;	0,0
718,8482666015625;	204,5;	0,0;	0,0
718,9576416015625;	196,5;	0,0;	0,0
719,06689453125;	221,5;	0,0;	0,0
719,1762084960938;	212,25;	0,0;	0,0
719,2854614257812;	198,0;	0,0;	0,0
719,394775390625;	216,75;	0,0;	0,0
719,5039672851562;	216,75;	0,0;	0,0
719,6132202148438;	220,75;	0,0;	0,0
719,722412109375;	220,5;	0,0;	0,0
719,83154296875;	210,0;	0,0;	0,0
719,9407348632812;	219,25;	0,0;	0,0
720,0498657226562;	204,75;	0,0;	0,0
720,1589965820312;	225,75;	0,0;	0,0
720,26806640625;	236,25;	0,0;	0,0
720,3771362304688;	209,0;	0,0;	0,0
720,4862060546875;	215,0;	0,0;	0,0
720,5952758789062;	215,75;	0,0;	0,0
720,7042846679688;	209,25;	0,0;	0,0
720,8132934570312;	223,5;	0,0;	0,0
720,9223022460938;	216,0;	0,0;	0,0
721,03125;	220,0;	0,0;	0,0
721,14013671875;	218,75;	0,0;	0,0
721,2490844726562;	216,0;	0,0;	0,0
721,3580322265625;	210,75;	0,0;	0,0
721,4668579101562;	223,0;	0,0;	0,0
721,57568359375;	209,0;	0,0;	0,0
721,6845703125;	218,25;	0,0;	0,0
721,7933959960938;	210,5;	0,0;	0,0
721,9022216796875;	218,25;	0,0;	0,0
722,010986328125;	216,0;	0,0;	0,0
722,1197509765625;	220,5;	0,0;	0,0
722,2284545898438;	213,0;	0,0;	0,0
722,3372192382812;	218,25;	0,0;	0,0
722,4459228515625;	209,5;	0,0;	0,0
722,5546264648438;	217,0;	0,0;	0,0
722,6632690429688;	212,75;	0,0;	0,0
722,7718505859375;	211,0;	0,0;	0,0
722,8804931640625;	221,0;	0,0;	0,0
722,9891357421875;	229,25;	0,0;	0,0
723,0977783203125;	222,5;	0,0;	0,0
723,206298828125;	208,25;	0,0;	0,0
723,3148803710938;	216,0;	0,0;	0,0
723,4234008789062;	217,5;	0,0;	0,0
723,5319213867188;	202,5;	0,0;	0,0
723,6403198242188;	221,75;	0,0;	0,0
723,7488403320312;	213,0;	0,0;	0,0
723,8572387695312;	212,0;	0,0;	0,0
723,9657592773438;	214,75;	0,0;	0,0
724,0740966796875;	209,25;	0,0;	0,0
724,1824951171875;	215,25;	0,0;	0,0
724,2908325195312;	202,5;	0,0;	0,0
724,3992309570312;	211,5;	0,0;	0,0
724,507568359375;	215,75;	0,0;	0,0
724,6158447265625;	216,5;	0,0;	0,0
724,7241821289062;	218,5;	0,0;	0,0
724,8324584960938;	222,75;	0,0;	0,0
724,940673828125;	210,75;	0,0;	0,0
725,0489501953125;	218,25;	0,0;	0,0
725,1571655273438;	226,25;	0,0;	0,0
725,2653198242188;	208,75;	0,0;	0,0
725,3734741210938;	208,25;	0,0;	0,0
725,4816284179688;	215,25;	0,0;	0,0
725,5897216796875;	201,5;	0,0;	0,0
725,6978759765625;	200,5;	0,0;	0,0
725,8060302734375;	216,75;	0,0;	0,0
725,9141235351562;	211,0;	0,0;	0,0
726,0220947265625;	213,0;	0,0;	0,0
726,130126953125;	211,25;	0,0;	0,0
726,2381591796875;	223,25;	0,0;	0,0
726,3461303710938;	218,75;	0,0;	0,0
726,4541625976562;	220,5;	0,0;	0,0
726,5620727539062;	214,5;	0,0;	0,0
726,6700439453125;	207,5;	0,0;	0,0
726,7779541015625;	205,0;	0,0;	0,0
726,8858032226562;	214,25;	0,0;	0,0
726,99365234375;	221,75;	0,0;	0,0
727,1015625;	215,75;	0,0;	0,0
727,2094116210938;	215,75;	0,0;	0,0
727,3172607421875;	229,5;	0,0;	0,0
727,4249877929688;	224,0;	0,0;	0,0
727,5327758789062;	217,25;	0,0;	0,0
727,6405029296875;	226,75;	0,0;	0,0
727,748291015625;	221,75;	0,0;	0,0
727,8560180664062;	219,75;	0,0;	0,0
727,9636840820312;	208,5;	0,0;	0,0
728,0713500976562;	221,0;	0,0;	0,0
728,1790161132812;	211,25;	0,0;	0,0
728,2865600585938;	202,25;	0,0;	0,0
728,3942260742188;	218,25;	0,0;	0,0
728,5018310546875;	220,25;	0,0;	0,0
728,6094360351562;	212,5;	0,0;	0,0
728,7169189453125;	224,0;	0,0;	0,0
728,8245239257812;	216,0;	0,0;	0,0
728,9320678710938;	221,0;	0,0;	0,0
729,0394897460938;	213,5;	0,0;	0,0
729,14697265625;	214,25;	0,0;	0,0
729,2545166015625;	222,0;	0,0;	0,0
729,3619384765625;	220,5;	0,0;	0,0
729,4693603515625;	216,0;	0,0;	0,0
729,5767822265625;	215,25;	0,0;	0,0
729,68408203125;	221,5;	0,0;	0,0
729,7914428710938;	221,0;	0,0;	0,0
729,8988037109375;	214,25;	0,0;	0,0
730,0061645507812;	213,5;	0,0;	0,0
730,1134033203125;	209,0;	0,0;	0,0
730,2206420898438;	209,25;	0,0;	0,0
730,327880859375;	227,5;	0,0;	0,0
730,4351806640625;	216,0;	0,0;	0,0
730,5424194335938;	224,25;	0,0;	0,0
730,649658203125;	229,0;	0,0;	0,0
730,7567749023438;	234,5;	0,0;	0,0
730,8639526367188;	222,75;	0,0;	0,0
730,9710693359375;	217,0;	0,0;	0,0
731,0781860351562;	224,5;	0,0;	0,0
731,185302734375;	227,5;	0,0;	0,0
731,2923583984375;	226,25;	0,0;	0,0
731,3994750976562;	211,25;	0,0;	0,0
731,5064697265625;	207,5;	0,0;	0,0
731,613525390625;	219,75;	0,0;	0,0
731,720458984375;	217,75;	0,0;	0,0
731,8274536132812;	230,5;	0,0;	0,0
731,9344482421875;	221,5;	0,0;	0,0
732,0413818359375;	214,75;	0,0;	0,0
732,1482543945312;	228,75;	0,0;	0,0
732,2551879882812;	212,75;	0,0;	0,0
732,362060546875;	225,75;	0,0;	0,0
732,4689331054688;	225,75;	0,0;	0,0
732,5757446289062;	238,75;	0,0;	0,0
732,6825561523438;	211,75;	0,0;	0,0
732,7894287109375;	228,75;	0,0;	0,0
732,8961181640625;	221,75;	0,0;	0,0
733,0029296875;	217,25;	0,0;	0,0
733,1096801757812;	227,25;	0,0;	0,0
733,2163696289062;	229,25;	0,0;	0,0
733,3231201171875;	229,75;	0,0;	0,0
733,4298095703125;	215,75;	0,0;	0,0
733,5364379882812;	222,5;	0,0;	0,0
733,64306640625;	224,5;	0,0;	0,0
733,7496337890625;	223,0;	0,0;	0,0
733,8562622070312;	219,75;	0,0;	0,0
733,9628295898438;	226,25;	0,0;	0,0
734,0694580078125;	223,25;	0,0;	0,0
734,1759033203125;	204,75;	0,0;	0,0
734,282470703125;	216,5;	0,0;	0,0
734,3889770507812;	207,75;	0,0;	0,0
734,4954223632812;	221,5;	0,0;	0,0
734,6018676757812;	228,5;	0,0;	0,0
734,7083129882812;	216,75;	0,0;	0,0
734,8148193359375;	229,75;	0,0;	0,0
734,921142578125;	222,75;	0,0;	0,0
735,0275268554688;	229,75;	0,0;	0,0
735,1338500976562;	221,75;	0,0;	0,0
735,2401733398438;	211,75;	0,0;	0,0
735,3464965820312;	232,25;	0,0;	0,0
735,4528198242188;	216,25;	0,0;	0,0
735,55908203125;	221,25;	0,0;	0,0
735,6653442382812;	220,25;	0,0;	0,0
735,7716674804688;	229,25;	0,0;	0,0
735,8777465820312;	222,0;	0,0;	0,0
735,9840087890625;	228,5;	0,0;	0,0
736,0902099609375;	220,0;	0,0;	0,0
736,1963500976562;	225,5;	0,0;	0,0
736,302490234375;	218,0;	0,0;	0,0
736,4086303710938;	222,5;	0,0;	0,0
736,5147094726562;	231,75;	0,0;	0,0
736,6207885742188;	216,0;	0,0;	0,0
736,7268676757812;	218,25;	0,0;	0,0
736,8328857421875;	225,5;	0,0;	0,0
736,9389038085938;	205,75;	0,0;	0,0
737,044921875;	226,75;	0,0;	0,0
737,15087890625;	223,5;	0,0;	0,0
737,2568359375;	216,5;	0,0;	0,0
737,36279296875;	224,75;	0,0;	0,0
737,4686889648438;	217,75;	0,0;	0,0
737,5745239257812;	207,75;	0,0;	0,0
737,680419921875;	229,25;	0,0;	0,0
737,7863159179688;	220,25;	0,0;	0,0
737,89208984375;	227,25;	0,0;	0,0
737,9979248046875;	213,75;	0,0;	0,0
738,103759765625;	228,75;	0,0;	0,0
738,2095336914062;	233,5;	0,0;	0,0
738,3152465820312;	232,0;	0,0;	0,0
738,4210205078125;	250,5;	0,0;	0,0
738,5266723632812;	223,25;	0,0;	0,0
738,6323852539062;	217,25;	0,0;	0,0
738,7380981445312;	223,25;	0,0;	0,0
738,84375;	230,5;	0,0;	0,0
738,9493408203125;	218,75;	0,0;	0,0
739,0549926757812;	227,0;	0,0;	0,0
739,1605834960938;	213,5;	0,0;	0,0
739,26611328125;	227,0;	0,0;	0,0
739,3717041015625;	228,25;	0,0;	0,0
739,477294921875;	238,75;	0,0;	0,0
739,582763671875;	223,5;	0,0;	0,0
739,688232421875;	232,75;	0,0;	0,0
739,7937622070312;	221,5;	0,0;	0,0
739,8991088867188;	227,5;	0,0;	0,0
740,0045776367188;	225,25;	0,0;	0,0
740,1099853515625;	233,25;	0,0;	0,0
740,2153930664062;	220,25;	0,0;	0,0
740,32080078125;	228,25;	0,0;	0,0
740,4261474609375;	220,25;	0,0;	0,0
740,5314331054688;	230,0;	0,0;	0,0
740,63671875;	225,0;	0,0;	0,0
740,7420043945312;	246,5;	0,0;	0,0
740,8473510742188;	239,0;	0,0;	0,0
740,9525146484375;	222,5;	0,0;	0,0
741,0578002929688;	226,0;	0,0;	0,0
741,1630249023438;	224,0;	0,0;	0,0
741,2681884765625;	237,25;	0,0;	0,0
741,3733520507812;	248,5;	0,0;	0,0
741,478515625;	247,75;	0,0;	0,0
741,5836181640625;	264,0;	0,0;	0,0
741,688720703125;	261,5;	0,0;	0,0
741,7938232421875;	253,5;	0,0;	0,0
741,8988647460938;	256,25;	0,0;	0,0
742,00390625;	276,25;	0,0;	0,0
742,1089477539062;	303,5;	0,0;	0,0
742,2139892578125;	416,75;	0,0;	0,0
742,3189697265625;	635,25;	0,0;	0,0
742,4239501953125;	718,0;	0,0;	0,0
742,5288696289062;	528,0;	0,0;	0,0
742,6337890625;	420,75;	0,0;	0,0
742,7387084960938;	363,75;	0,0;	0,0
742,8436279296875;	336,5;	0,0;	0,0
742,948486328125;	320,5;	0,0;	0,0
743,0532836914062;	298,0;	0,0;	0,0
743,1581420898438;	291,75;	0,0;	0,0
743,262939453125;	298,25;	0,0;	0,0
743,36767578125;	279,25;	0,0;	0,0
743,4724731445312;	267,75;	0,0;	0,0
743,5772094726562;	296,0;	0,0;	0,0
743,681884765625;	293,25;	0,0;	0,0
743,78662109375;	295,0;	0,0;	0,0
743,8912963867188;	337,5;	0,0;	0,0
743,9959106445312;	438,75;	0,0;	0,0
744,1005859375;	633,5;	0,0;	0,0
744,2052001953125;	1130,5;	0,0;	0,0
744,3097534179688;	1131,0;	0,0;	0,0
744,4143676757812;	741,75;	0,0;	0,0
744,5189819335938;	547,25;	0,0;	0,0
744,6234741210938;	464,75;	0,0;	0,0
744,72802734375;	408,25;	0,0;	0,0
744,8325805664062;	363,0;	0,0;	0,0
744,93701171875;	354,25;	0,0;	0,0
745,0414428710938;	322,0;	0,0;	0,0
745,1458740234375;	300,25;	0,0;	0,0
745,2503051757812;	308,5;	0,0;	0,0
745,3546752929688;	286,0;	0,0;	0,0
745,4590454101562;	312,5;	0,0;	0,0
745,5634765625;	281,0;	0,0;	0,0
745,667724609375;	294,5;	0,0;	0,0
745,7720947265625;	299,75;	0,0;	0,0
745,8764038085938;	297,5;	0,0;	0,0
745,9805908203125;	293,75;	0,0;	0,0
746,0848999023438;	307,0;	0,0;	0,0
746,1891479492188;	321,25;	0,0;	0,0
746,2933959960938;	325,25;	0,0;	0,0
746,3975219726562;	359,25;	0,0;	0,0
746,501708984375;	412,75;	0,0;	0,0
746,6058349609375;	524,0;	0,0;	0,0
746,7100219726562;	937,5;	0,0;	0,0
746,8140869140625;	1699,0;	0,0;	0,0
746,918212890625;	1576,0;	0,0;	0,0
747,022216796875;	1057,25;	0,0;	0,0
747,1262817382812;	759,5;	0,0;	0,0
747,2302856445312;	596,25;	0,0;	0,0
747,3343505859375;	526,5;	0,0;	0,0
747,4383544921875;	443,5;	0,0;	0,0
747,5422973632812;	410,0;	0,0;	0,0
747,6461791992188;	422,75;	0,0;	0,0
747,7501831054688;	398,0;	0,0;	0,0
747,8540649414062;	369,25;	0,0;	0,0
747,9579467773438;	362,25;	0,0;	0,0
748,0618286132812;	368,5;	0,0;	0,0
748,1656494140625;	349,25;	0,0;	0,0
748,26953125;	316,5;	0,0;	0,0
748,373291015625;	311,0;	0,0;	0,0
748,47705078125;	300,0;	0,0;	0,0
748,580810546875;	301,25;	0,0;	0,0
748,6845703125;	281,5;	0,0;	0,0
748,7882690429688;	291,25;	0,0;	0,0
748,8920288085938;	282,5;	0,0;	0,0
748,9956665039062;	277,0;	0,0;	0,0
749,099365234375;	256,0;	0,0;	0,0
749,2030029296875;	263,75;	0,0;	0,0
749,3065795898438;	267,0;	0,0;	0,0
749,4102172851562;	272,25;	0,0;	0,0
749,5137939453125;	250,5;	0,0;	0,0
749,6173706054688;	254,0;	0,0;	0,0
749,7208862304688;	255,75;	0,0;	0,0
749,8244018554688;	255,5;	0,0;	0,0
749,9278564453125;	246,5;	0,0;	0,0
750,0313720703125;	262,25;	0,0;	0,0
750,1348266601562;	228,5;	0,0;	0,0
750,23828125;	247,25;	0,0;	0,0
750,3416748046875;	266,25;	0,0;	0,0
750,445068359375;	257,75;	0,0;	0,0
750,54833984375;	249,0;	0,0;	0,0
750,6517944335938;	235,25;	0,0;	0,0
750,755126953125;	245,5;	0,0;	0,0
750,8584594726562;	241,0;	0,0;	0,0
750,9617309570312;	254,25;	0,0;	0,0
751,0650024414062;	234,5;	0,0;	0,0
751,1682739257812;	240,0;	0,0;	0,0
751,271484375;	237,25;	0,0;	0,0
751,3746337890625;	248,5;	0,0;	0,0
751,4779052734375;	262,5;	0,0;	0,0
751,5811157226562;	251,75;	0,0;	0,0
751,6841430664062;	248,5;	0,0;	0,0
751,787353515625;	235,5;	0,0;	0,0
751,890380859375;	239,75;	0,0;	0,0
751,9934692382812;	229,25;	0,0;	0,0
752,0965576171875;	220,75;	0,0;	0,0
752,1996459960938;	242,25;	0,0;	0,0
752,3026123046875;	238,25;	0,0;	0,0
752,4056396484375;	227,75;	0,0;	0,0
752,5086059570312;	233,0;	0,0;	0,0
752,6115112304688;	231,75;	0,0;	0,0
752,7144775390625;	221,5;	0,0;	0,0
752,8174438476562;	236,5;	0,0;	0,0
752,92041015625;	239,75;	0,0;	0,0
753,023193359375;	243,5;	0,0;	0,0
753,1260986328125;	223,75;	0,0;	0,0
753,2288818359375;	229,75;	0,0;	0,0
753,3317260742188;	220,75;	0,0;	0,0
753,4345703125;	226,75;	0,0;	0,0
753,537353515625;	218,75;	0,0;	0,0
753,6400146484375;	233,75;	0,0;	0,0
753,7427978515625;	228,25;	0,0;	0,0
753,845458984375;	232,25;	0,0;	0,0
753,9481811523438;	215,75;	0,0;	0,0
754,0508422851562;	209,75;	0,0;	0,0
754,153564453125;	235,75;	0,0;	0,0
754,2561645507812;	221,0;	0,0;	0,0
754,3587646484375;	239,5;	0,0;	0,0
754,4613647460938;	208,25;	0,0;	0,0
754,5639038085938;	221,75;	0,0;	0,0
754,6664428710938;	230,75;	0,0;	0,0
754,7689819335938;	217,5;	0,0;	0,0
754,8715209960938;	225,25;	0,0;	0,0
754,9739379882812;	224,5;	0,0;	0,0
755,0764770507812;	229,25;	0,0;	0,0
755,1788330078125;	219,75;	0,0;	0,0
755,2813110351562;	225,75;	0,0;	0,0
755,3837280273438;	227,5;	0,0;	0,0
755,4861450195312;	225,75;	0,0;	0,0
755,5885009765625;	230,5;	0,0;	0,0
755,6908569335938;	228,75;	0,0;	0,0
755,7930908203125;	231,75;	0,0;	0,0
755,8954467773438;	223,75;	0,0;	0,0
755,9976806640625;	214,25;	0,0;	0,0
756,0999755859375;	225,25;	0,0;	0,0
756,2022094726562;	228,75;	0,0;	0,0
756,3043823242188;	229,25;	0,0;	0,0
756,4066772460938;	229,25;	0,0;	0,0
756,5087280273438;	212,0;	0,0;	0,0
756,6109619140625;	209,5;	0,0;	0,0
756,7130737304688;	224,25;	0,0;	0,0
756,8152465820312;	228,0;	0,0;	0,0
756,9172973632812;	226,5;	0,0;	0,0
757,0194091796875;	215,0;	0,0;	0,0
757,1213989257812;	215,25;	0,0;	0,0
757,2234497070312;	217,5;	0,0;	0,0
757,3255004882812;	218,0;	0,0;	0,0
757,4274291992188;	218,25;	0,0;	0,0
757,5294189453125;	214,5;	0,0;	0,0
757,63134765625;	219,0;	0,0;	0,0
757,7333374023438;	215,75;	0,0;	0,0
757,8351440429688;	227,5;	0,0;	0,0
757,9371337890625;	228,5;	0,0;	0,0
758,0389404296875;	219,75;	0,0;	0,0
758,140869140625;	225,5;	0,0;	0,0
758,2426147460938;	217,25;	0,0;	0,0
758,3444213867188;	210,25;	0,0;	0,0
758,4461669921875;	205,75;	0,0;	0,0
758,5479125976562;	213,75;	0,0;	0,0
758,6497192382812;	214,75;	0,0;	0,0
758,7514038085938;	219,0;	0,0;	0,0
758,8530883789062;	217,0;	0,0;	0,0
758,954833984375;	215,75;	0,0;	0,0
759,0564575195312;	207,75;	0,0;	0,0
759,1580810546875;	216,75;	0,0;	0,0
759,2597045898438;	215,5;	0,0;	0,0
759,361328125;	216,5;	0,0;	0,0
759,4628295898438;	225,75;	0,0;	0,0
759,564453125;	214,75;	0,0;	0,0
759,6659545898438;	226,75;	0,0;	0,0
759,7674560546875;	220,75;	0,0;	0,0
759,8690185546875;	214,75;	0,0;	0,0
759,970458984375;	242,25;	0,0;	0,0
760,0719604492188;	220,75;	0,0;	0,0
760,17333984375;	213,25;	0,0;	0,0
760,2747802734375;	225,75;	0,0;	0,0
760,3760986328125;	221,75;	0,0;	0,0
760,4774169921875;	214,0;	0,0;	0,0
760,5787963867188;	206,25;	0,0;	0,0
760,68017578125;	205,5;	0,0;	0,0
760,781494140625;	215,25;	0,0;	0,0
760,8827514648438;	215,25;	0,0;	0,0
760,9840087890625;	214,0;	0,0;	0,0
761,085205078125;	222,0;	0,0;	0,0
761,1864624023438;	224,75;	0,0;	0,0
761,2876586914062;	222,0;	0,0;	0,0
761,388916015625;	213,0;	0,0;	0,0
761,489990234375;	216,5;	0,0;	0,0
761,5911254882812;	216,5;	0,0;	0,0
761,6921997070312;	201,75;	0,0;	0,0
761,7933349609375;	215,5;	0,0;	0,0
761,8944702148438;	223,5;	0,0;	0,0
761,9954833984375;	217,75;	0,0;	0,0
762,0964965820312;	230,75;	0,0;	0,0
762,197509765625;	224,25;	0,0;	0,0
762,2984619140625;	218,75;	0,0;	0,0
762,3994750976562;	225,25;	0,0;	0,0
762,5004272460938;	211,25;	0,0;	0,0
762,601318359375;	224,75;	0,0;	0,0
762,7022705078125;	212,5;	0,0;	0,0
762,8031616210938;	230,25;	0,0;	0,0
762,9039916992188;	214,5;	0,0;	0,0
763,0048217773438;	227,5;	0,0;	0,0
763,1056518554688;	215,75;	0,0;	0,0
763,2064819335938;	218,25;	0,0;	0,0
763,3073120117188;	225,5;	0,0;	0,0
763,4080200195312;	242,25;	0,0;	0,0
763,5087280273438;	252,75;	0,0;	0,0
763,6094360351562;	251,75;	0,0;	0,0
763,7101440429688;	230,5;	0,0;	0,0
763,8108520507812;	213,25;	0,0;	0,0
763,9115600585938;	238,0;	0,0;	0,0
764,0121459960938;	231,75;	0,0;	0,0
764,1127319335938;	219,75;	0,0;	0,0
764,2133178710938;	217,75;	0,0;	0,0
764,3139038085938;	225,5;	0,0;	0,0
764,4144897460938;	232,0;	0,0;	0,0
764,5150146484375;	220,75;	0,0;	0,0
764,6155395507812;	222,25;	0,0;	0,0
764,7159423828125;	225,75;	0,0;	0,0
764,8164672851562;	223,75;	0,0;	0,0
764,9168701171875;	219,0;	0,0;	0,0
765,017333984375;	231,75;	0,0;	0,0
765,1177368164062;	221,5;	0,0;	0,0
765,2181396484375;	228,75;	0,0;	0,0
765,3184204101562;	224,25;	0,0;	0,0
765,4187622070312;	224,0;	0,0;	0,0
765,5191040039062;	235,75;	0,0;	0,0
765,619384765625;	232,25;	0,0;	0,0
765,7196655273438;	246,25;	0,0;	0,0
765,8199462890625;	256,5;	0,0;	0,0
765,920166015625;	270,0;	0,0;	0,0
766,0203857421875;	303,25;	0,0;	0,0
766,12060546875;	384,0;	0,0;	0,0
766,2207641601562;	628,5;	0,0;	0,0
766,3209228515625;	1559,25;	0,0;	0,0
766,4210815429688;	3763,0;	0,0;	0,0
766,521240234375;	2573,5;	0,0;	0,0
766,6212158203125;	774,0;	0,0;	0,0
766,7213745117188;	406,75;	0,0;	0,0
766,8213500976562;	331,0;	0,0;	0,0
766,92138671875;	291,0;	0,0;	0,0
767,0214233398438;	271,75;	0,0;	0,0
767,1213989257812;	253,5;	0,0;	0,0
767,2213134765625;	245,75;	0,0;	0,0
767,3212890625;	242,5;	0,0;	0,0
767,4212646484375;	237,0;	0,0;	0,0
767,5211181640625;	253,25;	0,0;	0,0
767,6209716796875;	248,25;	0,0;	0,0
767,7208251953125;	236,75;	0,0;	0,0
767,8207397460938;	233,75;	0,0;	0,0
767,9204711914062;	236,5;	0,0;	0,0
768,0203247070312;	228,5;	0,0;	0,0
768,1199951171875;	242,5;	0,0;	0,0
768,2197875976562;	233,75;	0,0;	0,0
768,319580078125;	230,25;	0,0;	0,0
768,4192504882812;	238,25;	0,0;	0,0
768,5189208984375;	242,75;	0,0;	0,0
768,6185913085938;	239,75;	0,0;	0,0
768,7182006835938;	242,75;	0,0;	0,0
768,81787109375;	236,5;	0,0;	0,0
768,91748046875;	232,0;	0,0;	0,0
769,01708984375;	231,25;	0,0;	0,0
769,1165771484375;	229,75;	0,0;	0,0
769,2161865234375;	237,75;	0,0;	0,0
769,315673828125;	260,25;	0,0;	0,0
769,4151611328125;	265,0;	0,0;	0,0
769,5146484375;	312,5;	0,0;	0,0
769,6141357421875;	449,25;	0,0;	0,0
769,713623046875;	978,25;	0,0;	0,0
769,8129272460938;	2633,0;	0,0;	0,0
769,912353515625;	2080,0;	0,0;	0,0
770,0116577148438;	644,25;	0,0;	0,0
770,111083984375;	342,0;	0,0;	0,0
770,2103881835938;	283,5;	0,0;	0,0
770,3097534179688;	252,5;	0,0;	0,0
770,408935546875;	256,5;	0,0;	0,0
770,5082397460938;	249,0;	0,0;	0,0
770,6075439453125;	245,0;	0,0;	0,0
770,7067260742188;	247,75;	0,0;	0,0
770,8059692382812;	232,25;	0,0;	0,0
770,9051513671875;	243,25;	0,0;	0,0
771,0042724609375;	237,5;	0,0;	0,0
771,1033935546875;	250,0;	0,0;	0,0
771,2025146484375;	219,25;	0,0;	0,0
771,3016357421875;	238,5;	0,0;	0,0
771,400634765625;	239,0;	0,0;	0,0
771,499755859375;	236,75;	0,0;	0,0
771,5988159179688;	236,0;	0,0;	0,0
771,6978149414062;	238,5;	0,0;	0,0
771,7968139648438;	241,75;	0,0;	0,0
771,8956909179688;	229,5;	0,0;	0,0
771,9946899414062;	233,25;	0,0;	0,0
772,0936279296875;	223,5;	0,0;	0,0
772,1925659179688;	240,75;	0,0;	0,0
772,2913818359375;	238,75;	0,0;	0,0
772,3902587890625;	240,25;	0,0;	0,0
772,4891357421875;	245,0;	0,0;	0,0
772,587890625;	242,25;	0,0;	0,0
772,6867065429688;	244,25;	0,0;	0,0
772,7855224609375;	241,25;	0,0;	0,0
772,88427734375;	247,5;	0,0;	0,0
772,9830322265625;	242,5;	0,0;	0,0
773,081787109375;	229,5;	0,0;	0,0
773,1803588867188;	242,5;	0,0;	0,0
773,2791137695312;	224,5;	0,0;	0,0
773,3777465820312;	232,75;	0,0;	0,0
773,4764404296875;	237,75;	0,0;	0,0
773,574951171875;	233,75;	0,0;	0,0
773,673583984375;	241,25;	0,0;	0,0
773,7721557617188;	240,25;	0,0;	0,0
773,8706665039062;	258,25;	0,0;	0,0
773,96923828125;	264,75;	0,0;	0,0
774,0677490234375;	240,25;	0,0;	0,0
774,1661987304688;	252,0;	0,0;	0,0
774,2646484375;	264,5;	0,0;	0,0
774,3630981445312;	255,5;	0,0;	0,0
774,4614868164062;	249,25;	0,0;	0,0
774,5598754882812;	242,0;	0,0;	0,0
774,6583251953125;	260,0;	0,0;	0,0
774,7566528320312;	258,25;	0,0;	0,0
774,8549194335938;	256,75;	0,0;	0,0
774,9533081054688;	280,5;	0,0;	0,0
775,051513671875;	269,0;	0,0;	0,0
775,1498413085938;	261,0;	0,0;	0,0
775,248046875;	273,0;	0,0;	0,0
775,3463134765625;	280,75;	0,0;	0,0
775,4445190429688;	287,75;	0,0;	0,0
775,542724609375;	292,5;	0,0;	0,0
775,640869140625;	293,5;	0,0;	0,0
775,7389526367188;	313,5;	0,0;	0,0
775,8370361328125;	321,25;	0,0;	0,0
775,9352416992188;	332,25;	0,0;	0,0
776,0332641601562;	356,25;	0,0;	0,0
776,13134765625;	355,25;	0,0;	0,0
776,2293701171875;	375,75;	0,0;	0,0
776,3273315429688;	400,5;	0,0;	0,0
776,4253540039062;	449,5;	0,0;	0,0
776,5233154296875;	483,0;	0,0;	0,0
776,6212768554688;	531,5;	0,0;	0,0
776,7191772460938;	649,25;	0,0;	0,0
776,817138671875;	858,25;	0,0;	0,0
776,9150390625;	1187,75;	0,0;	0,0
777,0128173828125;	1931,0;	0,0;	0,0
777,1107177734375;	3340,25;	0,0;	0,0
777,20849609375;	3635,5;	0,0;	0,0
777,306396484375;	3419,0;	0,0;	0,0
777,4041137695312;	3642,25;	0,0;	0,0
777,5018310546875;	3101,0;	0,0;	0,0
777,5995483398438;	2038,0;	0,0;	0,0
777,6973266601562;	1332,25;	0,0;	0,0
777,7950439453125;	967,5;	0,0;	0,0
777,8926391601562;	784,5;	0,0;	0,0
777,9902954101562;	642,0;	0,0;	0,0
778,0879516601562;	568,0;	0,0;	0,0
778,1854858398438;	528,0;	0,0;	0,0
778,2830810546875;	483,75;	0,0;	0,0
778,3806762695312;	448,25;	0,0;	0,0
778,4782104492188;	434,0;	0,0;	0,0
778,5757446289062;	401,0;	0,0;	0,0
778,6732177734375;	372,0;	0,0;	0,0
778,7706909179688;	361,75;	0,0;	0,0
778,8681640625;	353,0;	0,0;	0,0
778,9656372070312;	317,5;	0,0;	0,0
779,0630493164062;	335,5;	0,0;	0,0
779,1604614257812;	319,5;	0,0;	0,0
779,2577514648438;	305,75;	0,0;	0,0
779,3551025390625;	308,5;	0,0;	0,0
779,4524536132812;	293,75;	0,0;	0,0
779,5497436523438;	286,75;	0,0;	0,0
779,6470336914062;	280,25;	0,0;	0,0
779,7443237304688;	291,75;	0,0;	0,0
779,841552734375;	331,75;	0,0;	0,0
779,9387817382812;	448,25;	0,0;	0,0
780,035888671875;	387,25;	0,0;	0,0
780,1331176757812;	287,5;	0,0;	0,0
780,2303466796875;	267,25;	0,0;	0,0
780,3274536132812;	262,25;	0,0;	0,0
780,4244995117188;	274,0;	0,0;	0,0
780,5216064453125;	275,5;	0,0;	0,0
780,6187133789062;	258,75;	0,0;	0,0
780,7157592773438;	252,0;	0,0;	0,0
780,812744140625;	257,5;	0,0;	0,0
780,9098510742188;	251,0;	0,0;	0,0
781,0067749023438;	234,75;	0,0;	0,0
781,1036987304688;	260,25;	0,0;	0,0
781,20068359375;	251,5;	0,0;	0,0
781,2975463867188;	248,25;	0,0;	0,0
781,3944702148438;	229,5;	0,0;	0,0
781,4913940429688;	239,75;	0,0;	0,0
781,5882568359375;	252,5;	0,0;	0,0
781,68505859375;	246,75;	0,0;	0,0
781,7819213867188;	234,0;	0,0;	0,0
781,878662109375;	254,75;	0,0;	0,0
781,9754028320312;	239,75;	0,0;	0,0
782,0721435546875;	239,75;	0,0;	0,0
782,1689453125;	238,25;	0,0;	0,0
782,265625;	231,5;	0,0;	0,0
782,3622436523438;	228,75;	0,0;	0,0
782,458984375;	227,75;	0,0;	0,0
782,5555419921875;	234,25;	0,0;	0,0
782,6522216796875;	230,0;	0,0;	0,0
782,7488403320312;	245,25;	0,0;	0,0
782,8453979492188;	237,75;	0,0;	0,0
782,9419555664062;	226,75;	0,0;	0,0
783,0384521484375;	232,0;	0,0;	0,0
783,1349487304688;	238,0;	0,0;	0,0
783,2314453125;	228,0;	0,0;	0,0
783,3279418945312;	229,25;	0,0;	0,0
783,4243774414062;	229,25;	0,0;	0,0
783,5208129882812;	239,0;	0,0;	0,0
783,6171875;	227,5;	0,0;	0,0
783,7135620117188;	227,0;	0,0;	0,0
783,8098754882812;	229,5;	0,0;	0,0
783,90625;	233,0;	0,0;	0,0
784,0025634765625;	233,5;	0,0;	0,0
784,0989379882812;	221,75;	0,0;	0,0
784,1951904296875;	209,0;	0,0;	0,0
784,2913818359375;	222,25;	0,0;	0,0
784,3875732421875;	223,5;	0,0;	0,0
784,48388671875;	219,75;	0,0;	0,0
784,5800170898438;	230,25;	0,0;	0,0
784,6762084960938;	241,0;	0,0;	0,0
784,7723388671875;	233,0;	0,0;	0,0
784,8684692382812;	232,25;	0,0;	0,0
784,964599609375;	224,25;	0,0;	0,0
785,0606079101562;	233,0;	0,0;	0,0
785,1566772460938;	235,5;	0,0;	0,0
785,2527465820312;	225,0;	0,0;	0,0
785,3487548828125;	230,0;	0,0;	0,0
785,4447021484375;	217,5;	0,0;	0,0
785,5407104492188;	216,5;	0,0;	0,0
785,6365966796875;	212,75;	0,0;	0,0
785,7326049804688;	223,0;	0,0;	0,0
785,8284912109375;	219,5;	0,0;	0,0
785,9243774414062;	226,25;	0,0;	0,0
786,020263671875;	220,25;	0,0;	0,0
786,1160888671875;	220,25;	0,0;	0,0
786,2118530273438;	225,5;	0,0;	0,0
786,3076782226562;	206,75;	0,0;	0,0
786,4035034179688;	233,0;	0,0;	0,0
786,4992065429688;	231,5;	0,0;	0,0
786,5949096679688;	229,0;	0,0;	0,0
786,690673828125;	218,75;	0,0;	0,0
786,7863159179688;	232,25;	0,0;	0,0
786,8820190429688;	234,0;	0,0;	0,0
786,9776611328125;	221,75;	0,0;	0,0
787,0732421875;	229,5;	0,0;	0,0
787,1689453125;	227,75;	0,0;	0,0
787,2644653320312;	234,0;	0,0;	0,0
787,3600463867188;	229,5;	0,0;	0,0
787,4555053710938;	221,75;	0,0;	0,0
787,5510864257812;	231,75;	0,0;	0,0
787,6465454101562;	221,25;	0,0;	0,0
787,7420654296875;	228,0;	0,0;	0,0
787,8374633789062;	227,25;	0,0;	0,0
787,932861328125;	222,75;	0,0;	0,0
788,0283813476562;	226,25;	0,0;	0,0
788,1236572265625;	224,5;	0,0;	0,0
788,2190551757812;	221,0;	0,0;	0,0
788,314453125;	216,0;	0,0;	0,0
788,4097900390625;	230,25;	0,0;	0,0
788,5050048828125;	224,5;	0,0;	0,0
788,600341796875;	226,75;	0,0;	0,0
788,695556640625;	216,0;	0,0;	0,0
788,790771484375;	238,0;	0,0;	0,0
788,885986328125;	243,0;	0,0;	0,0
788,981201171875;	231,75;	0,0;	0,0
789,0762939453125;	230,75;	0,0;	0,0
789,1715087890625;	223,0;	0,0;	0,0
789,2665405273438;	224,0;	0,0;	0,0
789,3616943359375;	216,0;	0,0;	0,0
789,4568481445312;	218,75;	0,0;	0,0
789,5518798828125;	223,75;	0,0;	0,0
789,6469116210938;	223,0;	0,0;	0,0
789,741943359375;	232,0;	0,0;	0,0
789,8369140625;	213,0;	0,0;	0,0
789,9318237304688;	229,25;	0,0;	0,0
790,0267944335938;	229,25;	0,0;	0,0
790,1217651367188;	224,5;	0,0;	0,0
790,2166748046875;	234,0;	0,0;	0,0
790,3115234375;	223,0;	0,0;	0,0
790,4064331054688;	230,5;	0,0;	0,0
790,5011596679688;	219,0;	0,0;	0,0
790,5960083007812;	236,25;	0,0;	0,0
790,6908569335938;	230,0;	0,0;	0,0
790,7857055664062;	230,5;	0,0;	0,0
790,88037109375;	226,25;	0,0;	0,0
790,97509765625;	218,0;	0,0;	0,0
791,06982421875;	236,0;	0,0;	0,0
791,1644897460938;	226,0;	0,0;	0,0
791,2591552734375;	231,75;	0,0;	0,0
791,3538208007812;	231,0;	0,0;	0,0
791,4484252929688;	237,0;	0,0;	0,0
791,5430297851562;	221,0;	0,0;	0,0
791,6376342773438;	236,0;	0,0;	0,0
791,7321166992188;	238,75;	0,0;	0,0
791,82666015625;	225,0;	0,0;	0,0
791,9212036132812;	224,0;	0,0;	0,0
792,0157470703125;	222,5;	0,0;	0,0
792,1101684570312;	232,5;	0,0;	0,0
792,2046508789062;	244,25;	0,0;	0,0
792,2990112304688;	219,5;	0,0;	0,0
792,3934326171875;	218,5;	0,0;	0,0
792,48779296875;	240,75;	0,0;	0,0
792,5822143554688;	229,75;	0,0;	0,0
792,676513671875;	228,5;	0,0;	0,0
792,7708129882812;	236,25;	0,0;	0,0
792,8651123046875;	235,25;	0,0;	0,0
792,9593505859375;	222,75;	0,0;	0,0
793,0536499023438;	235,75;	0,0;	0,0
793,1478881835938;	224,25;	0,0;	0,0
793,2421264648438;	241,5;	0,0;	0,0
793,3363037109375;	237,0;	0,0;	0,0
793,430419921875;	237,75;	0,0;	0,0
793,5245361328125;	251,75;	0,0;	0,0
793,61865234375;	230,0;	0,0;	0,0
793,7128295898438;	246,75;	0,0;	0,0
793,806884765625;	253,0;	0,0;	0,0
793,90087890625;	248,75;	0,0;	0,0
793,9949340820312;	256,75;	0,0;	0,0
794,0889892578125;	278,5;	0,0;	0,0
794,1829223632812;	271,25;	0,0;	0,0
794,2769165039062;	284,5;	0,0;	0,0
794,3709106445312;	308,75;	0,0;	0,0
794,46484375;	325,75;	0,0;	0,0
794,5586547851562;	388,25;	0,0;	0,0
794,652587890625;	537,5;	0,0;	0,0
794,7463989257812;	577,75;	0,0;	0,0
794,8402099609375;	492,25;	0,0;	0,0
794,93408203125;	479,25;	0,0;	0,0
795,0278930664062;	496,5;	0,0;	0,0
795,1216430664062;	519,25;	0,0;	0,0
795,2153930664062;	455,75;	0,0;	0,0
795,30908203125;	378,5;	0,0;	0,0
795,4027709960938;	347,0;	0,0;	0,0
795,4964599609375;	292,25;	0,0;	0,0
795,5901489257812;	296,5;	0,0;	0,0
795,6837158203125;	274,75;	0,0;	0,0
795,7774047851562;	271,75;	0,0;	0,0
795,8709716796875;	252,0;	0,0;	0,0
795,9644775390625;	260,0;	0,0;	0,0
796,0580444335938;	249,75;	0,0;	0,0
796,1516723632812;	245,25;	0,0;	0,0
796,2451782226562;	248,25;	0,0;	0,0
796,3385620117188;	250,5;	0,0;	0,0
796,4320678710938;	239,5;	0,0;	0,0
796,5254516601562;	244,25;	0,0;	0,0
796,6189575195312;	231,0;	0,0;	0,0
796,7122802734375;	223,5;	0,0;	0,0
796,8057250976562;	241,75;	0,0;	0,0
796,8989868164062;	229,75;	0,0;	0,0
796,9923706054688;	223,0;	0,0;	0,0
797,085693359375;	231,5;	0,0;	0,0
797,178955078125;	227,75;	0,0;	0,0
797,272216796875;	221,25;	0,0;	0,0
797,365478515625;	228,75;	0,0;	0,0
797,458740234375;	226,5;	0,0;	0,0
797,5518188476562;	217,25;	0,0;	0,0
797,6450805664062;	217,75;	0,0;	0,0
797,7382202148438;	219,0;	0,0;	0,0
797,831298828125;	227,25;	0,0;	0,0
797,9244995117188;	232,25;	0,0;	0,0
798,017578125;	218,0;	0,0;	0,0
798,110595703125;	218,75;	0,0;	0,0
798,20361328125;	207,5;	0,0;	0,0
798,2965698242188;	217,5;	0,0;	0,0
798,3895874023438;	233,5;	0,0;	0,0
798,4826049804688;	221,0;	0,0;	0,0
798,5756225585938;	213,75;	0,0;	0,0
798,6685180664062;	203,25;	0,0;	0,0
798,7614135742188;	219,75;	0,0;	0,0
798,8543090820312;	218,25;	0,0;	0,0
798,9471435546875;	212,0;	0,0;	0,0
799,0400390625;	210,25;	0,0;	0,0
799,1328735351562;	216,5;	0,0;	0,0
799,2256469726562;	211,75;	0,0;	0,0
799,3184204101562;	216,5;	0,0;	0,0
799,4111938476562;	201,5;	0,0;	0,0
799,5038452148438;	222,5;	0,0;	0,0
799,5966186523438;	221,75;	0,0;	0,0
799,6892700195312;	218,75;	0,0;	0,0
799,781982421875;	216,25;	0,0;	0,0
799,8746337890625;	207,75;	0,0;	0,0
799,9672241210938;	220,25;	0,0;	0,0
800,059814453125;	223,75;	0,0;	0,0
800,1524047851562;	215,25;	0,0;	0,0
800,2449340820312;	217,0;	0,0;	0,0
800,3375244140625;	227,25;	0,0;	0,0
800,4300537109375;	214,5;	0,0;	0,0
800,5224609375;	214,25;	0,0;	0,0
800,614990234375;	215,5;	0,0;	0,0
800,7073364257812;	224,0;	0,0;	0,0
800,7998046875;	225,0;	0,0;	0,0
800,8922729492188;	217,25;	0,0;	0,0
800,984619140625;	215,5;	0,0;	0,0
801,076904296875;	208,25;	0,0;	0,0
801,1693115234375;	213,0;	0,0;	0,0
801,2615966796875;	218,0;	0,0;	0,0
801,3538818359375;	230,0;	0,0;	0,0
801,4461669921875;	216,75;	0,0;	0,0
801,5384521484375;	223,5;	0,0;	0,0
801,630615234375;	227,5;	0,0;	0,0
801,7227783203125;	220,5;	0,0;	0,0
801,8150024414062;	217,0;	0,0;	0,0
801,9071655273438;	219,75;	0,0;	0,0
801,999267578125;	221,25;	0,0;	0,0
802,0913696289062;	226,25;	0,0;	0,0
802,1835327148438;	218,25;	0,0;	0,0
802,2755737304688;	214,5;	0,0;	0,0
802,3676147460938;	200,25;	0,0;	0,0
802,4595947265625;	220,0;	0,0;	0,0
802,5516357421875;	219,5;	0,0;	0,0
802,6436157226562;	198,0;	0,0;	0,0
802,735595703125;	211,25;	0,0;	0,0
802,8275146484375;	213,5;	0,0;	0,0
802,91943359375;	205,0;	0,0;	0,0
803,0113525390625;	206,25;	0,0;	0,0
803,1031494140625;	201,5;	0,0;	0,0
803,195068359375;	224,5;	0,0;	0,0
803,286865234375;	208,25;	0,0;	0,0
803,378662109375;	210,5;	0,0;	0,0
803,4703979492188;	218,0;	0,0;	0,0
803,5621948242188;	204,25;	0,0;	0,0
803,6539306640625;	204,25;	0,0;	0,0
803,74560546875;	208,5;	0,0;	0,0
803,8373413085938;	208,25;	0,0;	0,0
803,928955078125;	205,5;	0,0;	0,0
804,0206298828125;	220,0;	0,0;	0,0
804,1122436523438;	202,5;	0,0;	0,0
804,2037963867188;	218,25;	0,0;	0,0
804,29541015625;	202,0;	0,0;	0,0
804,3870239257812;	220,75;	0,0;	0,0
804,4785766601562;	203,5;	0,0;	0,0
804,5699462890625;	205,75;	0,0;	0,0
804,6614990234375;	207,5;	0,0;	0,0
804,7529907226562;	204,5;	0,0;	0,0
804,8444213867188;	222,75;	0,0;	0,0
804,9358520507812;	193,75;	0,0;	0,0
805,0272216796875;	207,75;	0,0;	0,0
805,11865234375;	213,75;	0,0;	0,0
805,2099609375;	196,25;	0,0;	0,0
805,3013305664062;	206,75;	0,0;	0,0
805,392578125;	208,75;	0,0;	0,0
805,48388671875;	215,25;	0,0;	0,0
805,5751953125;	205,75;	0,0;	0,0
805,6664428710938;	210,0;	0,0;	0,0
805,757568359375;	212,25;	0,0;	0,0
805,8488159179688;	209,75;	0,0;	0,0
805,9400024414062;	208,0;	0,0;	0,0
806,0311889648438;	196,25;	0,0;	0,0
806,122314453125;	190,0;	0,0;	0,0
806,2134399414062;	192,0;	0,0;	0,0
806,3045043945312;	216,75;	0,0;	0,0
806,3955688476562;	216,5;	0,0;	0,0
806,4866333007812;	209,0;	0,0;	0,0
806,5775756835938;	205,0;	0,0;	0,0
806,6686401367188;	200,5;	0,0;	0,0
806,7596435546875;	199,75;	0,0;	0,0
806,8505859375;	202,75;	0,0;	0,0
806,9415283203125;	211,5;	0,0;	0,0
807,0324096679688;	217,5;	0,0;	0,0
807,1232299804688;	206,75;	0,0;	0,0
807,2141723632812;	202,25;	0,0;	0,0
807,3049926757812;	218,75;	0,0;	0,0
807,3958740234375;	217,75;	0,0;	0,0
807,486572265625;	215,75;	0,0;	0,0
807,577392578125;	200,75;	0,0;	0,0
807,6681518554688;	207,0;	0,0;	0,0
807,7588500976562;	210,75;	0,0;	0,0
807,8495483398438;	219,75;	0,0;	0,0
807,9403076171875;	212,75;	0,0;	0,0
808,0309448242188;	213,75;	0,0;	0,0
808,1215209960938;	205,0;	0,0;	0,0
808,212158203125;	223,75;	0,0;	0,0
808,302734375;	204,25;	0,0;	0,0
808,393310546875;	212,25;	0,0;	0,0
808,48388671875;	203,75;	0,0;	0,0
808,574462890625;	215,0;	0,0;	0,0
808,6649169921875;	216,75;	0,0;	0,0
808,7554321289062;	214,0;	0,0;	0,0
808,8458862304688;	210,0;	0,0;	0,0
808,936279296875;	199,75;	0,0;	0,0
809,0267333984375;	199,5;	0,0;	0,0
809,1171264648438;	200,75;	0,0;	0,0
809,2074584960938;	213,0;	0,0;	0,0
809,2977905273438;	208,5;	0,0;	0,0
809,38818359375;	213,75;	0,0;	0,0
809,4784545898438;	210,25;	0,0;	0,0
809,5687255859375;	219,75;	0,0;	0,0
809,6589965820312;	218,0;	0,0;	0,0
809,749267578125;	217,75;	0,0;	0,0
809,8394165039062;	203,75;	0,0;	0,0
809,9296875;	209,0;	0,0;	0,0
810,019775390625;	208,75;	0,0;	0,0
810,1099243164062;	206,0;	0,0;	0,0
810,2000732421875;	208,75;	0,0;	0,0
810,2902221679688;	218,25;	0,0;	0,0
810,3802490234375;	218,5;	0,0;	0,0
810,4703369140625;	218,75;	0,0;	0,0
810,5603637695312;	207,5;	0,0;	0,0
810,6503295898438;	211,25;	0,0;	0,0
810,7403564453125;	210,0;	0,0;	0,0
810,8303833007812;	209,75;	0,0;	0,0
810,9202880859375;	205,75;	0,0;	0,0
811,0101928710938;	212,25;	0,0;	0,0
811,10009765625;	209,0;	0,0;	0,0
811,18994140625;	229,0;	0,0;	0,0
811,27978515625;	212,75;	0,0;	0,0
811,3696899414062;	234,75;	0,0;	0,0
811,4595336914062;	253,5;	0,0;	0,0
811,5491943359375;	254,5;	0,0;	0,0
811,6390380859375;	248,0;	0,0;	0,0
811,7286987304688;	248,25;	0,0;	0,0
811,8184204101562;	226,75;	0,0;	0,0
811,908203125;	219,75;	0,0;	0,0
811,9978637695312;	222,75;	0,0;	0,0
812,0874633789062;	220,0;	0,0;	0,0
812,1771240234375;	226,0;	0,0;	0,0
812,2667846679688;	234,25;	0,0;	0,0
812,3562622070312;	270,25;	0,0;	0,0
812,4458618164062;	384,75;	0,0;	0,0
812,535400390625;	663,0;	0,0;	0,0
812,6249389648438;	631,0;	0,0;	0,0
812,7144165039062;	374,0;	0,0;	0,0
812,8038940429688;	264,5;	0,0;	0,0
812,893310546875;	232,25;	0,0;	0,0
812,9827880859375;	225,5;	0,0;	0,0
813,0722045898438;	223,0;	0,0;	0,0
813,1615600585938;	223,0;	0,0;	0,0
813,2508544921875;	213,25;	0,0;	0,0
813,3402709960938;	215,0;	0,0;	0,0
813,4295654296875;	218,25;	0,0;	0,0
813,518798828125;	214,5;	0,0;	0,0
813,6080932617188;	213,0;	0,0;	0,0
813,6973876953125;	211,0;	0,0;	0,0
813,78662109375;	217,5;	0,0;	0,0
813,8757934570312;	218,0;	0,0;	0,0
813,9649658203125;	212,25;	0,0;	0,0
814,0540771484375;	214,0;	0,0;	0,0
814,1431884765625;	214,0;	0,0;	0,0
814,2323608398438;	215,25;	0,0;	0,0
814,3214721679688;	204,5;	0,0;	0,0
814,4104614257812;	214,0;	0,0;	0,0
814,4995727539062;	213,5;	0,0;	0,0
814,5885620117188;	213,5;	0,0;	0,0
814,6775512695312;	218,0;	0,0;	0,0
814,7665405273438;	214,25;	0,0;	0,0
814,8555297851562;	219,5;	0,0;	0,0
814,9443969726562;	225,25;	0,0;	0,0
815,0333251953125;	217,25;	0,0;	0,0
815,1221923828125;	204,5;	0,0;	0,0
815,2110595703125;	218,0;	0,0;	0,0
815,2999267578125;	217,75;	0,0;	0,0
815,3887329101562;	220,5;	0,0;	0,0
815,4775390625;	220,0;	0,0;	0,0
815,5662231445312;	213,75;	0,0;	0,0
815,6550903320312;	223,5;	0,0;	0,0
815,7437133789062;	212,75;	0,0;	0,0
815,8323974609375;	218,75;	0,0;	0,0
815,921142578125;	217,5;	0,0;	0,0
816,0098266601562;	231,25;	0,0;	0,0
816,0984497070312;	219,75;	0,0;	0,0
816,18701171875;	223,75;	0,0;	0,0
816,275634765625;	218,25;	0,0;	0,0
816,3641967773438;	228,75;	0,0;	0,0
816,4526977539062;	228,0;	0,0;	0,0
816,541259765625;	228,75;	0,0;	0,0
816,6297607421875;	228,75;	0,0;	0,0
816,7182006835938;	223,0;	0,0;	0,0
816,8067016601562;	259,75;	0,0;	0,0
816,8950805664062;	234,5;	0,0;	0,0
816,9834594726562;	246,75;	0,0;	0,0
817,0718994140625;	238,75;	0,0;	0,0
817,1602783203125;	252,5;	0,0;	0,0
817,24853515625;	253,25;	0,0;	0,0
817,3369140625;	239,75;	0,0;	0,0
817,4251708984375;	259,75;	0,0;	0,0
817,5134887695312;	270,75;	0,0;	0,0
817,6017456054688;	276,75;	0,0;	0,0
817,68994140625;	273,0;	0,0;	0,0
817,7781372070312;	274,75;	0,0;	0,0
817,8663330078125;	283,75;	0,0;	0,0
817,9544677734375;	307,25;	0,0;	0,0
818,0426025390625;	364,75;	0,0;	0,0
818,1307373046875;	431,5;	0,0;	0,0
818,2188110351562;	594,75;	0,0;	0,0
818,306884765625;	771,75;	0,0;	0,0
818,3948974609375;	920,0;	0,0;	0,0
818,48291015625;	999,25;	0,0;	0,0
818,5709228515625;	894,75;	0,0;	0,0
818,658935546875;	886,75;	0,0;	0,0
818,746826171875;	1027,75;	0,0;	0,0
818,8348388671875;	943,5;	0,0;	0,0
818,9226684570312;	715,0;	0,0;	0,0
819,0106201171875;	590,75;	0,0;	0,0
819,0984497070312;	498,75;	0,0;	0,0
819,186279296875;	449,25;	0,0;	0,0
819,2741088867188;	486,75;	0,0;	0,0
819,3619384765625;	594,5;	0,0;	0,0
819,44970703125;	656,25;	0,0;	0,0
819,537353515625;	494,75;	0,0;	0,0
819,6251220703125;	385,0;	0,0;	0,0
819,7127685546875;	357,75;	0,0;	0,0
819,8004760742188;	385,75;	0,0;	0,0
819,88818359375;	388,5;	0,0;	0,0
819,9757690429688;	430,75;	0,0;	0,0
820,0633544921875;	429,5;	0,0;	0,0
820,1509399414062;	405,25;	0,0;	0,0
820,2384643554688;	360,75;	0,0;	0,0
820,3260498046875;	341,25;	0,0;	0,0
820,4136352539062;	326,25;	0,0;	0,0
820,5010986328125;	343,75;	0,0;	0,0
820,5885620117188;	344,0;	0,0;	0,0
820,676025390625;	368,25;	0,0;	0,0
820,763427734375;	395,5;	0,0;	0,0
820,850830078125;	440,0;	0,0;	0,0
820,938232421875;	533,75;	0,0;	0,0
821,025634765625;	646,5;	0,0;	0,0
821,1129760742188;	674,5;	0,0;	0,0
821,2001953125;	608,75;	0,0;	0,0
821,2875366210938;	654,5;	0,0;	0,0
821,3748168945312;	789,75;	0,0;	0,0
821,4620361328125;	1101,75;	0,0;	0,0
821,5492553710938;	1642,25;	0,0;	0,0
821,6365356445312;	1774,25;	0,0;	0,0
821,7236328125;	1379,75;	0,0;	0,0
821,810791015625;	996,25;	0,0;	0,0
821,89794921875;	799,75;	0,0;	0,0
821,9850463867188;	767,5;	0,0;	0,0
822,0720825195312;	778,0;	0,0;	0,0
822,1591796875;	890,75;	0,0;	0,0
822,2462768554688;	1060,0;	0,0;	0,0
822,333251953125;	1085,75;	0,0;	0,0
822,4202270507812;	855,75;	0,0;	0,0
822,5072021484375;	666,5;	0,0;	0,0
822,5941162109375;	554,75;	0,0;	0,0
822,6810913085938;	497,5;	0,0;	0,0
822,7680053710938;	462,75;	0,0;	0,0
822,8547973632812;	463,25;	0,0;	0,0
822,9417114257812;	446,75;	0,0;	0,0
823,0285034179688;	420,25;	0,0;	0,0
823,1152954101562;	424,75;	0,0;	0,0
823,2021484375;	406,75;	0,0;	0,0
823,2888793945312;	388,5;	0,0;	0,0
823,3756103515625;	377,75;	0,0;	0,0
823,4623413085938;	354,0;	0,0;	0,0
823,5490112304688;	359,25;	0,0;	0,0
823,6356811523438;	352,75;	0,0;	0,0
823,7223510742188;	344,75;	0,0;	0,0
823,8090209960938;	359,25;	0,0;	0,0
823,8956298828125;	397,5;	0,0;	0,0
823,982177734375;	459,5;	0,0;	0,0
824,0687255859375;	582,75;	0,0;	0,0
824,1552124023438;	784,25;	0,0;	0,0
824,24169921875;	886,0;	0,0;	0,0
824,3283081054688;	799,75;	0,0;	0,0
824,4147338867188;	597,25;	0,0;	0,0
824,5010986328125;	483,75;	0,0;	0,0
824,5875854492188;	452,5;	0,0;	0,0
824,6740112304688;	422,5;	0,0;	0,0
824,7603149414062;	381,25;	0,0;	0,0
824,8466796875;	337,5;	0,0;	0,0
824,9330444335938;	321,25;	0,0;	0,0
825,0193481445312;	320,25;	0,0;	0,0
825,1055908203125;	328,75;	0,0;	0,0
825,1918334960938;	309,0;	0,0;	0,0
825,2780151367188;	297,75;	0,0;	0,0
825,3642578125;	291,0;	0,0;	0,0
825,4505004882812;	282,0;	0,0;	0,0
825,5366821289062;	182,75;	0,0;	0,0
825,622802734375;	167,0;	0,0;	0,0
825,7089233398438;	156,75;	0,0;	0,0
825,7949829101562;	176,5;	0,0;	0,0
825,881103515625;	161,5;	0,0;	0,0
825,9671630859375;	160,25;	0,0;	0,0
826,05322265625;	169,0;	0,0;	0,0
826,1392211914062;	170,25;	0,0;	0,0
826,22509765625;	158,75;	0,0;	0,0
826,31103515625;	169,75;	0,0;	0,0
826,3970336914062;	167,0;	0,0;	0,0
826,4829711914062;	168,5;	0,0;	0,0
826,56884765625;	168,0;	0,0;	0,0
826,65478515625;	162,25;	0,0;	0,0
826,7405395507812;	166,75;	0,0;	0,0
826,826416015625;	0,0;	0,0;	0,0
