36.0	47.25
Integration time [ms]:	1.05
Averaging Nr. [scans]:1
Smoothing Nr. [pixels]:0
Data measured with spectrometer [name]:b'2101207U1'
Wave	;Sample	;Dark	;Reference	;Scope	
[nm]	;[counts]	;[counts]	;[counts]	
 
607,3350219726562;	153,25;	0,0;	0,0
607,4614868164062;	158,0;	0,0;	0,0
607,5878295898438;	145,75;	0,0;	0,0
607,7142944335938;	152,0;	0,0;	0,0
607,8406982421875;	153,75;	0,0;	0,0
607,967041015625;	153,0;	0,0;	0,0
608,0933837890625;	145,5;	0,0;	0,0
608,2197265625;	159,25;	0,0;	0,0
608,3460083007812;	148,0;	0,0;	0,0
608,4723510742188;	153,25;	0,0;	0,0
608,5986328125;	140,5;	0,0;	0,0
608,7249755859375;	145,25;	0,0;	0,0
608,8511352539062;	154,0;	0,0;	0,0
608,9774169921875;	141,5;	0,0;	0,0
609,1036376953125;	150,0;	0,0;	0,0
609,2297973632812;	148,75;	0,0;	0,0
609,3560180664062;	234,0;	0,0;	0,0
609,4822387695312;	233,0;	0,0;	0,0
609,6083374023438;	242,75;	0,0;	0,0
609,7344970703125;	260,0;	0,0;	0,0
609,8606567382812;	265,25;	0,0;	0,0
609,9866943359375;	296,0;	0,0;	0,0
610,11279296875;	343,0;	0,0;	0,0
610,2388916015625;	560,75;	0,0;	0,0
610,3649291992188;	1467,5;	0,0;	0,0
610,490966796875;	883,5;	0,0;	0,0
610,6170043945312;	326,0;	0,0;	0,0
610,7430419921875;	287,0;	0,0;	0,0
610,8689575195312;	256,25;	0,0;	0,0
610,9949340820312;	258,25;	0,0;	0,0
611,1209106445312;	240,75;	0,0;	0,0
611,246826171875;	238,0;	0,0;	0,0
611,3727416992188;	246,0;	0,0;	0,0
611,4987182617188;	228,5;	0,0;	0,0
611,6245727539062;	228,5;	0,0;	0,0
611,7504272460938;	224,75;	0,0;	0,0
611,8762817382812;	230,5;	0,0;	0,0
612,0020751953125;	245,0;	0,0;	0,0
612,1279296875;	262,25;	0,0;	0,0
612,2537231445312;	375,75;	0,0;	0,0
612,3794555664062;	277,75;	0,0;	0,0
612,5052490234375;	238,75;	0,0;	0,0
612,6310424804688;	236,5;	0,0;	0,0
612,7567749023438;	218,0;	0,0;	0,0
612,8824462890625;	238,75;	0,0;	0,0
613,0081787109375;	231,25;	0,0;	0,0
613,1339111328125;	233,25;	0,0;	0,0
613,259521484375;	233,25;	0,0;	0,0
613,3851928710938;	244,0;	0,0;	0,0
613,5108642578125;	232,25;	0,0;	0,0
613,6364135742188;	238,0;	0,0;	0,0
613,7620849609375;	246,5;	0,0;	0,0
613,8876953125;	233,0;	0,0;	0,0
614,01318359375;	244,5;	0,0;	0,0
614,1387939453125;	230,5;	0,0;	0,0
614,2643432617188;	235,5;	0,0;	0,0
614,3897705078125;	239,25;	0,0;	0,0
614,5152587890625;	232,0;	0,0;	0,0
614,6408081054688;	236,75;	0,0;	0,0
614,7662963867188;	238,25;	0,0;	0,0
614,8917236328125;	246,25;	0,0;	0,0
615,0171508789062;	235,5;	0,0;	0,0
615,142578125;	241,0;	0,0;	0,0
615,2679443359375;	236,25;	0,0;	0,0
615,3933715820312;	229,5;	0,0;	0,0
615,5187377929688;	240,0;	0,0;	0,0
615,6441040039062;	240,75;	0,0;	0,0
615,7693481445312;	255,0;	0,0;	0,0
615,8947143554688;	254,5;	0,0;	0,0
616,0199584960938;	245,25;	0,0;	0,0
616,145263671875;	305,5;	0,0;	0,0
616,2705688476562;	483,75;	0,0;	0,0
616,3958129882812;	303,5;	0,0;	0,0
616,5210571289062;	241,25;	0,0;	0,0
616,6463012695312;	245,5;	0,0;	0,0
616,771484375;	237,25;	0,0;	0,0
616,8966064453125;	261,75;	0,0;	0,0
617,0217895507812;	273,25;	0,0;	0,0
617,14697265625;	249,0;	0,0;	0,0
617,2720947265625;	249,25;	0,0;	0,0
617,397216796875;	252,5;	0,0;	0,0
617,5222778320312;	243,75;	0,0;	0,0
617,6473388671875;	242,5;	0,0;	0,0
617,7723999023438;	234,5;	0,0;	0,0
617,8975219726562;	248,5;	0,0;	0,0
618,0225219726562;	244,75;	0,0;	0,0
618,1475219726562;	240,75;	0,0;	0,0
618,2725219726562;	235,75;	0,0;	0,0
618,3974609375;	240,25;	0,0;	0,0
618,5224609375;	231,25;	0,0;	0,0
618,6473999023438;	245,25;	0,0;	0,0
618,7723999023438;	244,25;	0,0;	0,0
618,897216796875;	230,25;	0,0;	0,0
619,0221557617188;	233,5;	0,0;	0,0
619,1470336914062;	238,0;	0,0;	0,0
619,2718505859375;	238,0;	0,0;	0,0
619,3966674804688;	219,5;	0,0;	0,0
619,5215454101562;	253,0;	0,0;	0,0
619,6463623046875;	224,25;	0,0;	0,0
619,7711791992188;	226,0;	0,0;	0,0
619,8959350585938;	227,5;	0,0;	0,0
620,0206298828125;	223,25;	0,0;	0,0
620,1454467773438;	250,0;	0,0;	0,0
620,2702026367188;	231,0;	0,0;	0,0
620,394775390625;	230,0;	0,0;	0,0
620,51953125;	232,75;	0,0;	0,0
620,6442260742188;	233,5;	0,0;	0,0
620,7688598632812;	228,5;	0,0;	0,0
620,8934936523438;	238,5;	0,0;	0,0
621,0181274414062;	229,5;	0,0;	0,0
621,1427612304688;	230,25;	0,0;	0,0
621,2672729492188;	225,25;	0,0;	0,0
621,3919067382812;	238,25;	0,0;	0,0
621,5164794921875;	218,75;	0,0;	0,0
621,6409301757812;	224,75;	0,0;	0,0
621,7655029296875;	218,0;	0,0;	0,0
621,8900756835938;	208,5;	0,0;	0,0
622,0144653320312;	215,5;	0,0;	0,0
622,1389770507812;	226,75;	0,0;	0,0
622,2634887695312;	231,75;	0,0;	0,0
622,3878173828125;	225,5;	0,0;	0,0
622,5122680664062;	230,25;	0,0;	0,0
622,6366577148438;	220,25;	0,0;	0,0
622,7611083984375;	212,75;	0,0;	0,0
622,8854370117188;	219,75;	0,0;	0,0
623,009765625;	229,25;	0,0;	0,0
623,1341552734375;	215,5;	0,0;	0,0
623,2584228515625;	217,0;	0,0;	0,0
623,3827514648438;	228,25;	0,0;	0,0
623,507080078125;	222,25;	0,0;	0,0
623,6312866210938;	237,5;	0,0;	0,0
623,7555541992188;	221,75;	0,0;	0,0
623,8797607421875;	225,0;	0,0;	0,0
624,0039672851562;	228,0;	0,0;	0,0
624,128173828125;	229,0;	0,0;	0,0
624,2523803710938;	226,25;	0,0;	0,0
624,37646484375;	231,25;	0,0;	0,0
624,5006713867188;	231,5;	0,0;	0,0
624,624755859375;	233,5;	0,0;	0,0
624,7489624023438;	215,5;	0,0;	0,0
624,8729858398438;	225,0;	0,0;	0,0
624,9970703125;	231,5;	0,0;	0,0
625,1211547851562;	235,75;	0,0;	0,0
625,2451782226562;	239,25;	0,0;	0,0
625,3692016601562;	246,25;	0,0;	0,0
625,4932861328125;	243,5;	0,0;	0,0
625,6171875;	235,25;	0,0;	0,0
625,7412109375;	221,75;	0,0;	0,0
625,8651733398438;	240,5;	0,0;	0,0
625,9890747070312;	224,0;	0,0;	0,0
626,113037109375;	232,75;	0,0;	0,0
626,2369384765625;	226,0;	0,0;	0,0
626,3607788085938;	233,25;	0,0;	0,0
626,4846801757812;	227,25;	0,0;	0,0
626,6085815429688;	226,5;	0,0;	0,0
626,732421875;	228,25;	0,0;	0,0
626,8561401367188;	229,0;	0,0;	0,0
626,9800415039062;	225,5;	0,0;	0,0
627,1038208007812;	224,5;	0,0;	0,0
627,2275390625;	229,25;	0,0;	0,0
627,351318359375;	220,0;	0,0;	0,0
627,4750366210938;	219,0;	0,0;	0,0
627,5986938476562;	223,25;	0,0;	0,0
627,7224731445312;	222,75;	0,0;	0,0
627,84619140625;	215,5;	0,0;	0,0
627,9697875976562;	214,5;	0,0;	0,0
628,093505859375;	227,0;	0,0;	0,0
628,2171020507812;	212,5;	0,0;	0,0
628,3406982421875;	223,75;	0,0;	0,0
628,46435546875;	220,25;	0,0;	0,0
628,5879516601562;	230,75;	0,0;	0,0
628,7114868164062;	210,5;	0,0;	0,0
628,8349609375;	228,75;	0,0;	0,0
628,9585571289062;	211,25;	0,0;	0,0
629,0820922851562;	224,5;	0,0;	0,0
629,20556640625;	216,25;	0,0;	0,0
629,3290405273438;	224,25;	0,0;	0,0
629,4525146484375;	217,75;	0,0;	0,0
629,575927734375;	211,5;	0,0;	0,0
629,6994018554688;	215,75;	0,0;	0,0
629,8228149414062;	213,0;	0,0;	0,0
629,9461669921875;	224,5;	0,0;	0,0
630,0695190429688;	204,25;	0,0;	0,0
630,19287109375;	219,25;	0,0;	0,0
630,316162109375;	216,75;	0,0;	0,0
630,4395751953125;	215,0;	0,0;	0,0
630,5629272460938;	233,25;	0,0;	0,0
630,6862182617188;	224,0;	0,0;	0,0
630,8094482421875;	216,0;	0,0;	0,0
630,9326782226562;	222,75;	0,0;	0,0
631,0559692382812;	227,5;	0,0;	0,0
631,1791381835938;	223,5;	0,0;	0,0
631,3023681640625;	215,5;	0,0;	0,0
631,425537109375;	234,5;	0,0;	0,0
631,5486450195312;	216,25;	0,0;	0,0
631,6718139648438;	211,25;	0,0;	0,0
631,7949829101562;	227,75;	0,0;	0,0
631,9180908203125;	203,25;	0,0;	0,0
632,0411987304688;	216,75;	0,0;	0,0
632,164306640625;	217,5;	0,0;	0,0
632,2872924804688;	204,0;	0,0;	0,0
632,410400390625;	208,25;	0,0;	0,0
632,533447265625;	218,0;	0,0;	0,0
632,656494140625;	228,75;	0,0;	0,0
632,7794189453125;	212,25;	0,0;	0,0
632,9024047851562;	229,5;	0,0;	0,0
633,025390625;	211,5;	0,0;	0,0
633,1483154296875;	197,5;	0,0;	0,0
633,2713012695312;	227,75;	0,0;	0,0
633,3942260742188;	222,0;	0,0;	0,0
633,5170288085938;	209,75;	0,0;	0,0
633,639892578125;	217,25;	0,0;	0,0
633,7628173828125;	218,25;	0,0;	0,0
633,8856201171875;	236,25;	0,0;	0,0
634,0084838867188;	212,5;	0,0;	0,0
634,1312866210938;	225,75;	0,0;	0,0
634,2540283203125;	233,0;	0,0;	0,0
634,3768310546875;	205,0;	0,0;	0,0
634,4995727539062;	222,5;	0,0;	0,0
634,622314453125;	254,75;	0,0;	0,0
634,7449951171875;	239,25;	0,0;	0,0
634,8677368164062;	222,5;	0,0;	0,0
634,9904174804688;	212,5;	0,0;	0,0
635,1130981445312;	212,25;	0,0;	0,0
635,2357177734375;	227,25;	0,0;	0,0
635,3583984375;	211,0;	0,0;	0,0
635,48095703125;	214,75;	0,0;	0,0
635,6035766601562;	211,25;	0,0;	0,0
635,7261962890625;	225,5;	0,0;	0,0
635,8486938476562;	209,0;	0,0;	0,0
635,9712524414062;	198,5;	0,0;	0,0
636,0938110351562;	210,25;	0,0;	0,0
636,21630859375;	224,5;	0,0;	0,0
636,3388061523438;	215,25;	0,0;	0,0
636,4613037109375;	220,5;	0,0;	0,0
636,583740234375;	216,25;	0,0;	0,0
636,7061767578125;	212,0;	0,0;	0,0
636,82861328125;	210,25;	0,0;	0,0
636,9510498046875;	212,5;	0,0;	0,0
637,0734252929688;	218,25;	0,0;	0,0
637,1957397460938;	231,5;	0,0;	0,0
637,3181762695312;	223,0;	0,0;	0,0
637,4404296875;	222,5;	0,0;	0,0
637,5628051757812;	222,75;	0,0;	0,0
637,6851196289062;	200,5;	0,0;	0,0
637,807373046875;	218,75;	0,0;	0,0
637,9296264648438;	215,0;	0,0;	0,0
638,0518798828125;	216,25;	0,0;	0,0
638,1741333007812;	224,25;	0,0;	0,0
638,2963256835938;	219,75;	0,0;	0,0
638,4185791015625;	209,25;	0,0;	0,0
638,5407104492188;	223,0;	0,0;	0,0
638,662841796875;	229,0;	0,0;	0,0
638,7850341796875;	221,0;	0,0;	0,0
638,9071655273438;	212,25;	0,0;	0,0
639,0292358398438;	213,0;	0,0;	0,0
639,1513671875;	207,0;	0,0;	0,0
639,2734375;	232,0;	0,0;	0,0
639,3954467773438;	213,5;	0,0;	0,0
639,517578125;	220,0;	0,0;	0,0
639,6395874023438;	207,0;	0,0;	0,0
639,7615356445312;	224,5;	0,0;	0,0
639,883544921875;	205,0;	0,0;	0,0
640,0055541992188;	221,25;	0,0;	0,0
640,12744140625;	221,0;	0,0;	0,0
640,2493896484375;	208,5;	0,0;	0,0
640,371337890625;	216,25;	0,0;	0,0
640,4932250976562;	226,5;	0,0;	0,0
640,6151733398438;	207,0;	0,0;	0,0
640,7369995117188;	219,0;	0,0;	0,0
640,85888671875;	204,25;	0,0;	0,0
640,9806518554688;	211,0;	0,0;	0,0
641,1024780273438;	221,75;	0,0;	0,0
641,2243041992188;	218,5;	0,0;	0,0
641,3460693359375;	226,0;	0,0;	0,0
641,4678344726562;	206,5;	0,0;	0,0
641,589599609375;	213,5;	0,0;	0,0
641,7112426757812;	209,75;	0,0;	0,0
641,8330078125;	203,75;	0,0;	0,0
641,9547119140625;	214,5;	0,0;	0,0
642,0763549804688;	201,25;	0,0;	0,0
642,197998046875;	206,75;	0,0;	0,0
642,3197021484375;	200,75;	0,0;	0,0
642,4412841796875;	196,75;	0,0;	0,0
642,5628662109375;	208,75;	0,0;	0,0
642,6845092773438;	213,5;	0,0;	0,0
642,8060913085938;	207,25;	0,0;	0,0
642,9276123046875;	205,25;	0,0;	0,0
643,0491943359375;	214,75;	0,0;	0,0
643,1707153320312;	211,25;	0,0;	0,0
643,2921142578125;	214,25;	0,0;	0,0
643,4136352539062;	209,5;	0,0;	0,0
643,5350952148438;	216,0;	0,0;	0,0
643,6565551757812;	222,75;	0,0;	0,0
643,7780151367188;	235,0;	0,0;	0,0
643,8994140625;	354,0;	0,0;	0,0
644,020751953125;	338,75;	0,0;	0,0
644,1421508789062;	232,5;	0,0;	0,0
644,2635498046875;	212,75;	0,0;	0,0
644,3848876953125;	219,0;	0,0;	0,0
644,5061645507812;	219,5;	0,0;	0,0
644,6275024414062;	211,75;	0,0;	0,0
644,748779296875;	222,25;	0,0;	0,0
644,8700561523438;	210,75;	0,0;	0,0
644,9913330078125;	236,5;	0,0;	0,0
645,112548828125;	232,25;	0,0;	0,0
645,2337646484375;	225,75;	0,0;	0,0
645,3549194335938;	233,5;	0,0;	0,0
645,4761962890625;	215,25;	0,0;	0,0
645,5972900390625;	236,25;	0,0;	0,0
645,7184448242188;	230,5;	0,0;	0,0
645,839599609375;	233,75;	0,0;	0,0
645,960693359375;	222,75;	0,0;	0,0
646,081787109375;	224,5;	0,0;	0,0
646,202880859375;	261,5;	0,0;	0,0
646,3238525390625;	364,25;	0,0;	0,0
646,4449462890625;	237,25;	0,0;	0,0
646,5659790039062;	226,75;	0,0;	0,0
646,6870727539062;	232,75;	0,0;	0,0
646,8079833984375;	235,25;	0,0;	0,0
646,928955078125;	237,0;	0,0;	0,0
647,0499877929688;	240,0;	0,0;	0,0
647,1708374023438;	255,75;	0,0;	0,0
647,291748046875;	252,75;	0,0;	0,0
647,4127197265625;	243,5;	0,0;	0,0
647,5335083007812;	230,5;	0,0;	0,0
647,6544189453125;	232,5;	0,0;	0,0
647,7752685546875;	253,75;	0,0;	0,0
647,8961181640625;	241,75;	0,0;	0,0
648,0169067382812;	235,75;	0,0;	0,0
648,1376953125;	240,75;	0,0;	0,0
648,2584838867188;	246,25;	0,0;	0,0
648,3792114257812;	259,75;	0,0;	0,0
648,5;	252,25;	0,0;	0,0
648,6207275390625;	234,25;	0,0;	0,0
648,7413940429688;	240,75;	0,0;	0,0
648,8621215820312;	260,5;	0,0;	0,0
648,9827880859375;	253,25;	0,0;	0,0
649,1033935546875;	249,0;	0,0;	0,0
649,2240600585938;	258,5;	0,0;	0,0
649,3446655273438;	269,25;	0,0;	0,0
649,4652709960938;	307,75;	0,0;	0,0
649,5858764648438;	243,0;	0,0;	0,0
649,7064208984375;	243,0;	0,0;	0,0
649,8269653320312;	247,25;	0,0;	0,0
649,947509765625;	247,0;	0,0;	0,0
650,0680541992188;	256,25;	0,0;	0,0
650,1884765625;	240,5;	0,0;	0,0
650,3090209960938;	244,5;	0,0;	0,0
650,4295043945312;	242,5;	0,0;	0,0
650,5499267578125;	240,5;	0,0;	0,0
650,6702880859375;	258,5;	0,0;	0,0
650,7907104492188;	241,75;	0,0;	0,0
650,9111328125;	230,25;	0,0;	0,0
651,031494140625;	237,75;	0,0;	0,0
651,15185546875;	249,25;	0,0;	0,0
651,2721557617188;	261,75;	0,0;	0,0
651,3924560546875;	252,75;	0,0;	0,0
651,5128173828125;	248,0;	0,0;	0,0
651,633056640625;	237,75;	0,0;	0,0
651,7532958984375;	240,0;	0,0;	0,0
651,8735961914062;	248,75;	0,0;	0,0
651,9937744140625;	253,75;	0,0;	0,0
652,1140747070312;	244,0;	0,0;	0,0
652,2342529296875;	248,25;	0,0;	0,0
652,3543701171875;	234,5;	0,0;	0,0
652,474609375;	222,25;	0,0;	0,0
652,5946655273438;	234,75;	0,0;	0,0
652,71484375;	261,5;	0,0;	0,0
652,8348999023438;	271,0;	0,0;	0,0
652,9550170898438;	257,25;	0,0;	0,0
653,0750732421875;	252,0;	0,0;	0,0
653,1951293945312;	256,75;	0,0;	0,0
653,3151245117188;	261,75;	0,0;	0,0
653,4351196289062;	274,5;	0,0;	0,0
653,55517578125;	272,0;	0,0;	0,0
653,6751098632812;	254,5;	0,0;	0,0
653,7950439453125;	281,25;	0,0;	0,0
653,9150390625;	269,25;	0,0;	0,0
654,034912109375;	270,75;	0,0;	0,0
654,1548461914062;	266,5;	0,0;	0,0
654,2747802734375;	305,75;	0,0;	0,0
654,3946533203125;	311,0;	0,0;	0,0
654,5144653320312;	293,0;	0,0;	0,0
654,63427734375;	295,75;	0,0;	0,0
654,7542114257812;	313,75;	0,0;	0,0
654,8739624023438;	313,25;	0,0;	0,0
654,9937133789062;	348,5;	0,0;	0,0
655,113525390625;	344,5;	0,0;	0,0
655,2332153320312;	350,25;	0,0;	0,0
655,3529663085938;	369,75;	0,0;	0,0
655,47265625;	375,5;	0,0;	0,0
655,5923461914062;	398,25;	0,0;	0,0
655,7120361328125;	455,25;	0,0;	0,0
655,8316650390625;	473,0;	0,0;	0,0
655,9512939453125;	492,25;	0,0;	0,0
656,0709228515625;	549,25;	0,0;	0,0
656,1905517578125;	616,0;	0,0;	0,0
656,3101196289062;	637,5;	0,0;	0,0
656,4296875;	647,0;	0,0;	0,0
656,5492553710938;	627,5;	0,0;	0,0
656,6688232421875;	562,5;	0,0;	0,0
656,788330078125;	518,0;	0,0;	0,0
656,9077758789062;	478,25;	0,0;	0,0
657,0272827148438;	455,0;	0,0;	0,0
657,146728515625;	415,25;	0,0;	0,0
657,2661743164062;	405,75;	0,0;	0,0
657,3856811523438;	396,0;	0,0;	0,0
657,5050048828125;	377,5;	0,0;	0,0
657,6243896484375;	373,5;	0,0;	0,0
657,7438354492188;	358,5;	0,0;	0,0
657,8630981445312;	351,75;	0,0;	0,0
657,9824829101562;	326,5;	0,0;	0,0
658,101806640625;	301,75;	0,0;	0,0
658,2211303710938;	320,75;	0,0;	0,0
658,3403930664062;	313,25;	0,0;	0,0
658,4596557617188;	315,25;	0,0;	0,0
658,5789184570312;	302,75;	0,0;	0,0
658,6980590820312;	278,75;	0,0;	0,0
658,8173217773438;	293,75;	0,0;	0,0
658,9365234375;	291,0;	0,0;	0,0
659,0556640625;	260,5;	0,0;	0,0
659,1748657226562;	272,25;	0,0;	0,0
659,2940063476562;	265,75;	0,0;	0,0
659,4130859375;	278,75;	0,0;	0,0
659,5321655273438;	281,0;	0,0;	0,0
659,6513061523438;	267,25;	0,0;	0,0
659,7703247070312;	275,5;	0,0;	0,0
659,889404296875;	272,25;	0,0;	0,0
660,0084228515625;	248,75;	0,0;	0,0
660,12744140625;	249,0;	0,0;	0,0
660,2464599609375;	249,5;	0,0;	0,0
660,3654174804688;	265,25;	0,0;	0,0
660,484375;	245,5;	0,0;	0,0
660,603271484375;	259,75;	0,0;	0,0
660,7222900390625;	256,5;	0,0;	0,0
660,8411865234375;	248,75;	0,0;	0,0
660,9600219726562;	258,0;	0,0;	0,0
661,0789184570312;	250,25;	0,0;	0,0
661,19775390625;	237,75;	0,0;	0,0
661,3165893554688;	249,25;	0,0;	0,0
661,4354248046875;	252,25;	0,0;	0,0
661,55419921875;	226,0;	0,0;	0,0
661,6729736328125;	236,5;	0,0;	0,0
661,791748046875;	243,25;	0,0;	0,0
661,9105224609375;	245,0;	0,0;	0,0
662,0292358398438;	232,5;	0,0;	0,0
662,1478881835938;	234,5;	0,0;	0,0
662,2666015625;	217,25;	0,0;	0,0
662,3853149414062;	232,5;	0,0;	0,0
662,50390625;	227,5;	0,0;	0,0
662,62255859375;	235,25;	0,0;	0,0
662,7411499023438;	220,25;	0,0;	0,0
662,8597412109375;	226,0;	0,0;	0,0
662,9783325195312;	229,25;	0,0;	0,0
663,096923828125;	226,25;	0,0;	0,0
663,2153930664062;	222,5;	0,0;	0,0
663,333984375;	232,0;	0,0;	0,0
663,4524536132812;	226,5;	0,0;	0,0
663,5709228515625;	231,0;	0,0;	0,0
663,6893920898438;	221,0;	0,0;	0,0
663,8079223632812;	236,75;	0,0;	0,0
663,9263305664062;	231,5;	0,0;	0,0
664,0447387695312;	222,75;	0,0;	0,0
664,1631469726562;	227,0;	0,0;	0,0
664,2815551757812;	219,0;	0,0;	0,0
664,3998413085938;	232,75;	0,0;	0,0
664,5182495117188;	222,75;	0,0;	0,0
664,6365966796875;	208,75;	0,0;	0,0
664,7548217773438;	234,0;	0,0;	0,0
664,8731689453125;	225,5;	0,0;	0,0
664,991455078125;	221,75;	0,0;	0,0
665,1096801757812;	208,75;	0,0;	0,0
665,2279663085938;	222,75;	0,0;	0,0
665,34619140625;	220,0;	0,0;	0,0
665,4642944335938;	237,25;	0,0;	0,0
665,58251953125;	233,75;	0,0;	0,0
665,70068359375;	224,75;	0,0;	0,0
665,81884765625;	223,25;	0,0;	0,0
665,9369506835938;	231,5;	0,0;	0,0
666,0551147460938;	233,0;	0,0;	0,0
666,1732177734375;	238,25;	0,0;	0,0
666,291259765625;	229,75;	0,0;	0,0
666,4093017578125;	234,5;	0,0;	0,0
666,5274047851562;	239,25;	0,0;	0,0
666,6453857421875;	228,0;	0,0;	0,0
666,7633056640625;	226,0;	0,0;	0,0
666,88134765625;	229,25;	0,0;	0,0
666,999267578125;	216,75;	0,0;	0,0
667,1172485351562;	230,0;	0,0;	0,0
667,2351684570312;	228,0;	0,0;	0,0
667,3530883789062;	221,0;	0,0;	0,0
667,470947265625;	225,5;	0,0;	0,0
667,5888671875;	215,75;	0,0;	0,0
667,7066650390625;	216,0;	0,0;	0,0
667,8245239257812;	215,5;	0,0;	0,0
667,9423217773438;	213,0;	0,0;	0,0
668,0601806640625;	205,25;	0,0;	0,0
668,177978515625;	234,75;	0,0;	0,0
668,2957153320312;	212,0;	0,0;	0,0
668,4135131835938;	214,75;	0,0;	0,0
668,5311279296875;	211,5;	0,0;	0,0
668,64892578125;	218,0;	0,0;	0,0
668,7666015625;	224,75;	0,0;	0,0
668,8842163085938;	217,5;	0,0;	0,0
669,0018920898438;	227,25;	0,0;	0,0
669,1195678710938;	210,75;	0,0;	0,0
669,2371215820312;	202,0;	0,0;	0,0
669,354736328125;	225,25;	0,0;	0,0
669,4723510742188;	223,75;	0,0;	0,0
669,5899658203125;	241,0;	0,0;	0,0
669,7073974609375;	225,75;	0,0;	0,0
669,824951171875;	223,5;	0,0;	0,0
669,9424438476562;	233,0;	0,0;	0,0
670,0599365234375;	234,25;	0,0;	0,0
670,1774291992188;	263,0;	0,0;	0,0
670,294921875;	271,75;	0,0;	0,0
670,4122924804688;	324,75;	0,0;	0,0
670,5297241210938;	439,0;	0,0;	0,0
670,647216796875;	999,5;	0,0;	0,0
670,7645263671875;	3450,5;	0,0;	0,0
670,8818969726562;	3052,75;	0,0;	0,0
670,999267578125;	745,25;	0,0;	0,0
671,1165771484375;	399,5;	0,0;	0,0
671,2338256835938;	299,75;	0,0;	0,0
671,3511352539062;	271,75;	0,0;	0,0
671,4683837890625;	243,75;	0,0;	0,0
671,585693359375;	239,5;	0,0;	0,0
671,7029418945312;	256,75;	0,0;	0,0
671,8201904296875;	247,25;	0,0;	0,0
671,9373779296875;	240,75;	0,0;	0,0
672,0545043945312;	221,75;	0,0;	0,0
672,1716918945312;	208,75;	0,0;	0,0
672,288818359375;	213,25;	0,0;	0,0
672,4059448242188;	213,5;	0,0;	0,0
672,5230712890625;	216,75;	0,0;	0,0
672,64013671875;	210,25;	0,0;	0,0
672,7572021484375;	215,25;	0,0;	0,0
672,8743286132812;	194,0;	0,0;	0,0
672,9912719726562;	214,25;	0,0;	0,0
673,1083374023438;	210,75;	0,0;	0,0
673,225341796875;	203,5;	0,0;	0,0
673,3423461914062;	206,5;	0,0;	0,0
673,459228515625;	206,0;	0,0;	0,0
673,576171875;	208,0;	0,0;	0,0
673,693115234375;	218,75;	0,0;	0,0
673,8099975585938;	207,75;	0,0;	0,0
673,9268798828125;	218,25;	0,0;	0,0
674,0438232421875;	222,5;	0,0;	0,0
674,16064453125;	210,5;	0,0;	0,0
674,2774658203125;	190,75;	0,0;	0,0
674,394287109375;	213,25;	0,0;	0,0
674,5110473632812;	210,5;	0,0;	0,0
674,6278686523438;	219,75;	0,0;	0,0
674,74462890625;	208,25;	0,0;	0,0
674,861328125;	195,25;	0,0;	0,0
674,9780883789062;	201,5;	0,0;	0,0
675,0947875976562;	209,75;	0,0;	0,0
675,21142578125;	196,75;	0,0;	0,0
675,328125;	222,0;	0,0;	0,0
675,44482421875;	196,0;	0,0;	0,0
675,5614624023438;	205,75;	0,0;	0,0
675,677978515625;	208,25;	0,0;	0,0
675,7946166992188;	220,25;	0,0;	0,0
675,9111938476562;	209,0;	0,0;	0,0
676,0277099609375;	198,0;	0,0;	0,0
676,144287109375;	214,25;	0,0;	0,0
676,2608032226562;	198,5;	0,0;	0,0
676,3772583007812;	195,0;	0,0;	0,0
676,4937744140625;	203,5;	0,0;	0,0
676,6102294921875;	200,5;	0,0;	0,0
676,7266845703125;	200,5;	0,0;	0,0
676,8431396484375;	202,25;	0,0;	0,0
676,9595336914062;	212,0;	0,0;	0,0
677,0759887695312;	205,75;	0,0;	0,0
677,1922607421875;	221,75;	0,0;	0,0
677,3086547851562;	198,75;	0,0;	0,0
677,4249267578125;	183,0;	0,0;	0,0
677,541259765625;	208,5;	0,0;	0,0
677,6575927734375;	192,25;	0,0;	0,0
677,7738647460938;	213,25;	0,0;	0,0
677,8900756835938;	198,25;	0,0;	0,0
678,0064086914062;	204,0;	0,0;	0,0
678,1226196289062;	196,75;	0,0;	0,0
678,23876953125;	193,5;	0,0;	0,0
678,35498046875;	197,5;	0,0;	0,0
678,47119140625;	196,0;	0,0;	0,0
678,5872802734375;	198,5;	0,0;	0,0
678,7034301757812;	212,75;	0,0;	0,0
678,819580078125;	200,25;	0,0;	0,0
678,9356079101562;	200,75;	0,0;	0,0
679,0516967773438;	208,0;	0,0;	0,0
679,1677856445312;	204,75;	0,0;	0,0
679,2838745117188;	206,25;	0,0;	0,0
679,3998413085938;	207,0;	0,0;	0,0
679,515869140625;	187,25;	0,0;	0,0
679,6318969726562;	197,5;	0,0;	0,0
679,7477416992188;	203,25;	0,0;	0,0
679,8637084960938;	204,0;	0,0;	0,0
679,9796752929688;	212,0;	0,0;	0,0
680,0955810546875;	192,5;	0,0;	0,0
680,21142578125;	210,25;	0,0;	0,0
680,3273315429688;	194,5;	0,0;	0,0
680,4431762695312;	195,0;	0,0;	0,0
680,5590209960938;	204,5;	0,0;	0,0
680,6748657226562;	199,25;	0,0;	0,0
680,7906494140625;	204,0;	0,0;	0,0
680,9064331054688;	194,25;	0,0;	0,0
681,0221557617188;	193,0;	0,0;	0,0
681,137939453125;	205,75;	0,0;	0,0
681,2536010742188;	201,5;	0,0;	0,0
681,369384765625;	205,5;	0,0;	0,0
681,4850463867188;	209,5;	0,0;	0,0
681,6007080078125;	195,0;	0,0;	0,0
681,7163696289062;	200,25;	0,0;	0,0
681,83203125;	199,25;	0,0;	0,0
681,9475708007812;	189,75;	0,0;	0,0
682,0631713867188;	201,25;	0,0;	0,0
682,1787719726562;	195,0;	0,0;	0,0
682,2943115234375;	200,5;	0,0;	0,0
682,409912109375;	199,5;	0,0;	0,0
682,5254516601562;	199,25;	0,0;	0,0
682,640869140625;	203,0;	0,0;	0,0
682,7564086914062;	193,5;	0,0;	0,0
682,8718872070312;	206,25;	0,0;	0,0
682,9873657226562;	197,25;	0,0;	0,0
683,1027221679688;	210,0;	0,0;	0,0
683,2181396484375;	203,0;	0,0;	0,0
683,33349609375;	200,75;	0,0;	0,0
683,4488525390625;	203,0;	0,0;	0,0
683,5642700195312;	203,5;	0,0;	0,0
683,6796264648438;	200,0;	0,0;	0,0
683,7948608398438;	196,0;	0,0;	0,0
683,91015625;	195,25;	0,0;	0,0
684,0255126953125;	202,5;	0,0;	0,0
684,1406860351562;	203,25;	0,0;	0,0
684,2559814453125;	206,0;	0,0;	0,0
684,3712158203125;	199,0;	0,0;	0,0
684,4864501953125;	200,0;	0,0;	0,0
684,6016235351562;	207,75;	0,0;	0,0
684,7167358398438;	192,5;	0,0;	0,0
684,8318481445312;	200,5;	0,0;	0,0
684,947021484375;	200,0;	0,0;	0,0
685,0621337890625;	205,5;	0,0;	0,0
685,1773071289062;	192,25;	0,0;	0,0
685,2922973632812;	195,75;	0,0;	0,0
685,4073486328125;	195,75;	0,0;	0,0
685,5223999023438;	193,5;	0,0;	0,0
685,637451171875;	200,25;	0,0;	0,0
685,75244140625;	196,5;	0,0;	0,0
685,867431640625;	194,25;	0,0;	0,0
685,9823608398438;	200,75;	0,0;	0,0
686,0972900390625;	203,25;	0,0;	0,0
686,2122192382812;	204,0;	0,0;	0,0
686,3270874023438;	187,75;	0,0;	0,0
686,4420166015625;	191,0;	0,0;	0,0
686,556884765625;	192,25;	0,0;	0,0
686,6717529296875;	187,5;	0,0;	0,0
686,7865600585938;	192,5;	0,0;	0,0
686,9013671875;	185,25;	0,0;	0,0
687,0161743164062;	198,5;	0,0;	0,0
687,1309204101562;	211,0;	0,0;	0,0
687,2457275390625;	189,25;	0,0;	0,0
687,3604125976562;	202,25;	0,0;	0,0
687,4751586914062;	190,0;	0,0;	0,0
687,5899047851562;	201,75;	0,0;	0,0
687,7045288085938;	212,0;	0,0;	0,0
687,8192138671875;	194,0;	0,0;	0,0
687,933837890625;	202,5;	0,0;	0,0
688,0485229492188;	193,0;	0,0;	0,0
688,1630859375;	208,25;	0,0;	0,0
688,2776489257812;	198,5;	0,0;	0,0
688,3922119140625;	187,0;	0,0;	0,0
688,5067138671875;	197,25;	0,0;	0,0
688,621337890625;	189,0;	0,0;	0,0
688,73583984375;	208,5;	0,0;	0,0
688,850341796875;	192,75;	0,0;	0,0
688,9647216796875;	197,5;	0,0;	0,0
689,0792236328125;	204,5;	0,0;	0,0
689,1937255859375;	201,5;	0,0;	0,0
689,30810546875;	189,25;	0,0;	0,0
689,4224853515625;	198,75;	0,0;	0,0
689,5369262695312;	197,75;	0,0;	0,0
689,6512451171875;	184,25;	0,0;	0,0
689,7655639648438;	186,75;	0,0;	0,0
689,8799438476562;	184,0;	0,0;	0,0
689,9942016601562;	193,75;	0,0;	0,0
690,1084594726562;	194,25;	0,0;	0,0
690,2227783203125;	194,5;	0,0;	0,0
690,3370361328125;	212,75;	0,0;	0,0
690,4512329101562;	195,5;	0,0;	0,0
690,5654296875;	191,75;	0,0;	0,0
690,6796875;	195,5;	0,0;	0,0
690,7938232421875;	190,75;	0,0;	0,0
690,907958984375;	189,75;	0,0;	0,0
691,0221557617188;	200,75;	0,0;	0,0
691,1361694335938;	197,25;	0,0;	0,0
691,2503662109375;	187,25;	0,0;	0,0
691,3643798828125;	189,25;	0,0;	0,0
691,4784545898438;	195,25;	0,0;	0,0
691,592529296875;	191,75;	0,0;	0,0
691,7066040039062;	182,5;	0,0;	0,0
691,8206176757812;	211,0;	0,0;	0,0
691,9345092773438;	184,5;	0,0;	0,0
692,0484619140625;	194,5;	0,0;	0,0
692,1624145507812;	199,75;	0,0;	0,0
692,2763671875;	197,75;	0,0;	0,0
692,3903198242188;	205,0;	0,0;	0,0
692,5042114257812;	202,25;	0,0;	0,0
692,6180419921875;	194,25;	0,0;	0,0
692,73193359375;	199,25;	0,0;	0,0
692,8457641601562;	203,75;	0,0;	0,0
692,9595336914062;	201,0;	0,0;	0,0
693,0733642578125;	204,5;	0,0;	0,0
693,1871948242188;	204,5;	0,0;	0,0
693,3009033203125;	201,5;	0,0;	0,0
693,4146118164062;	200,75;	0,0;	0,0
693,5283813476562;	202,5;	0,0;	0,0
693,6420288085938;	204,25;	0,0;	0,0
693,7557373046875;	191,25;	0,0;	0,0
693,869384765625;	211,25;	0,0;	0,0
693,9830932617188;	206,75;	0,0;	0,0
694,0966186523438;	193,25;	0,0;	0,0
694,2102661132812;	211,0;	0,0;	0,0
694,3238525390625;	205,5;	0,0;	0,0
694,4374389648438;	193,5;	0,0;	0,0
694,5509643554688;	200,75;	0,0;	0,0
694,66455078125;	192,0;	0,0;	0,0
694,7780151367188;	201,5;	0,0;	0,0
694,8915405273438;	201,25;	0,0;	0,0
695,0050659179688;	208,25;	0,0;	0,0
695,1184692382812;	205,25;	0,0;	0,0
695,2318725585938;	198,5;	0,0;	0,0
695,3453369140625;	205,25;	0,0;	0,0
695,458740234375;	202,5;	0,0;	0,0
695,5721435546875;	199,0;	0,0;	0,0
695,6854858398438;	201,5;	0,0;	0,0
695,798828125;	199,25;	0,0;	0,0
695,9121704101562;	213,5;	0,0;	0,0
696,0254516601562;	205,75;	0,0;	0,0
696,1387329101562;	198,0;	0,0;	0,0
696,251953125;	197,25;	0,0;	0,0
696,365234375;	193,0;	0,0;	0,0
696,478515625;	220,25;	0,0;	0,0
696,5916748046875;	206,75;	0,0;	0,0
696,704833984375;	199,5;	0,0;	0,0
696,8180541992188;	203,5;	0,0;	0,0
696,9312133789062;	199,0;	0,0;	0,0
697,0443115234375;	199,0;	0,0;	0,0
697,157470703125;	198,25;	0,0;	0,0
697,2705078125;	194,75;	0,0;	0,0
697,3836669921875;	191,25;	0,0;	0,0
697,4967041015625;	200,5;	0,0;	0,0
697,6098022460938;	193,0;	0,0;	0,0
697,7227172851562;	211,0;	0,0;	0,0
697,8357543945312;	195,75;	0,0;	0,0
697,9487915039062;	202,0;	0,0;	0,0
698,0617065429688;	212,25;	0,0;	0,0
698,1746215820312;	207,0;	0,0;	0,0
698,28759765625;	203,0;	0,0;	0,0
698,4004516601562;	202,25;	0,0;	0,0
698,5133666992188;	194,5;	0,0;	0,0
698,626220703125;	200,5;	0,0;	0,0
698,739013671875;	212,0;	0,0;	0,0
698,8518676757812;	197,0;	0,0;	0,0
698,9647216796875;	199,5;	0,0;	0,0
699,0775146484375;	200,25;	0,0;	0,0
699,1902465820312;	198,25;	0,0;	0,0
699,3030395507812;	206,0;	0,0;	0,0
699,415771484375;	204,0;	0,0;	0,0
699,5284423828125;	213,25;	0,0;	0,0
699,6411743164062;	199,0;	0,0;	0,0
699,75390625;	202,0;	0,0;	0,0
699,8665161132812;	201,5;	0,0;	0,0
699,9791870117188;	212,0;	0,0;	0,0
700,091796875;	221,0;	0,0;	0,0
700,204345703125;	205,5;	0,0;	0,0
700,3169555664062;	189,5;	0,0;	0,0
700,4295654296875;	205,75;	0,0;	0,0
700,5420532226562;	214,5;	0,0;	0,0
700,6546630859375;	200,0;	0,0;	0,0
700,7671508789062;	200,75;	0,0;	0,0
700,8795776367188;	198,75;	0,0;	0,0
700,9920654296875;	208,25;	0,0;	0,0
701,1044921875;	203,25;	0,0;	0,0
701,2169799804688;	192,5;	0,0;	0,0
701,329345703125;	213,25;	0,0;	0,0
701,4417724609375;	193,75;	0,0;	0,0
701,5541381835938;	203,5;	0,0;	0,0
701,66650390625;	200,5;	0,0;	0,0
701,7788696289062;	198,25;	0,0;	0,0
701,8911743164062;	203,5;	0,0;	0,0
702,0033569335938;	208,75;	0,0;	0,0
702,11572265625;	202,75;	0,0;	0,0
702,2279663085938;	193,75;	0,0;	0,0
702,3402099609375;	210,0;	0,0;	0,0
702,452392578125;	204,75;	0,0;	0,0
702,5646362304688;	191,75;	0,0;	0,0
702,6768188476562;	204,75;	0,0;	0,0
702,7889404296875;	201,25;	0,0;	0,0
702,901123046875;	195,0;	0,0;	0,0
703,01318359375;	203,75;	0,0;	0,0
703,1253662109375;	192,25;	0,0;	0,0
703,2374267578125;	203,75;	0,0;	0,0
703,3494873046875;	201,5;	0,0;	0,0
703,4615478515625;	198,5;	0,0;	0,0
703,5735473632812;	204,25;	0,0;	0,0
703,6856079101562;	205,5;	0,0;	0,0
703,7975463867188;	194,75;	0,0;	0,0
703,9095458984375;	203,25;	0,0;	0,0
704,0215454101562;	201,75;	0,0;	0,0
704,1334228515625;	199,0;	0,0;	0,0
704,245361328125;	202,25;	0,0;	0,0
704,3572387695312;	202,75;	0,0;	0,0
704,4691162109375;	192,5;	0,0;	0,0
704,5809936523438;	192,25;	0,0;	0,0
704,6928100585938;	194,5;	0,0;	0,0
704,8046264648438;	199,0;	0,0;	0,0
704,9163818359375;	208,75;	0,0;	0,0
705,0281982421875;	208,75;	0,0;	0,0
705,139892578125;	202,0;	0,0;	0,0
705,2516479492188;	200,25;	0,0;	0,0
705,3634643554688;	192,0;	0,0;	0,0
705,4751586914062;	190,75;	0,0;	0,0
705,5867919921875;	213,75;	0,0;	0,0
705,6984252929688;	182,0;	0,0;	0,0
705,8101806640625;	194,5;	0,0;	0,0
705,9216918945312;	199,0;	0,0;	0,0
706,0333251953125;	204,25;	0,0;	0,0
706,1449584960938;	206,75;	0,0;	0,0
706,2564697265625;	192,5;	0,0;	0,0
706,3680419921875;	201,75;	0,0;	0,0
706,4795532226562;	206,5;	0,0;	0,0
706,5910034179688;	197,0;	0,0;	0,0
706,7025756835938;	197,75;	0,0;	0,0
706,8140869140625;	213,75;	0,0;	0,0
706,925537109375;	206,25;	0,0;	0,0
707,0369262695312;	201,75;	0,0;	0,0
707,1483154296875;	193,5;	0,0;	0,0
707,259765625;	190,25;	0,0;	0,0
707,37109375;	201,25;	0,0;	0,0
707,4824829101562;	195,5;	0,0;	0,0
707,5938720703125;	185,75;	0,0;	0,0
707,705078125;	188,25;	0,0;	0,0
707,81640625;	187,0;	0,0;	0,0
707,927734375;	187,0;	0,0;	0,0
708,0389404296875;	181,25;	0,0;	0,0
708,1502075195312;	187,75;	0,0;	0,0
708,2614135742188;	198,5;	0,0;	0,0
708,3726806640625;	190,0;	0,0;	0,0
708,4837646484375;	198,5;	0,0;	0,0
708,594970703125;	205,5;	0,0;	0,0
708,7061157226562;	194,25;	0,0;	0,0
708,8171997070312;	195,25;	0,0;	0,0
708,9283447265625;	184,5;	0,0;	0,0
709,0394287109375;	187,25;	0,0;	0,0
709,1504516601562;	202,75;	0,0;	0,0
709,2615356445312;	194,5;	0,0;	0,0
709,3726196289062;	196,5;	0,0;	0,0
709,4835815429688;	194,75;	0,0;	0,0
709,5946044921875;	204,5;	0,0;	0,0
709,7055053710938;	190,75;	0,0;	0,0
709,81640625;	188,25;	0,0;	0,0
709,9273681640625;	189,75;	0,0;	0,0
710,038330078125;	197,25;	0,0;	0,0
710,1492309570312;	186,75;	0,0;	0,0
710,2600708007812;	184,25;	0,0;	0,0
710,3709716796875;	187,0;	0,0;	0,0
710,4818115234375;	184,75;	0,0;	0,0
710,5925903320312;	185,0;	0,0;	0,0
710,7034301757812;	190,25;	0,0;	0,0
710,8141479492188;	189,5;	0,0;	0,0
710,9249267578125;	184,5;	0,0;	0,0
711,03564453125;	191,75;	0,0;	0,0
711,1463623046875;	189,5;	0,0;	0,0
711,2570190429688;	189,0;	0,0;	0,0
711,3677368164062;	173,75;	0,0;	0,0
711,4784545898438;	189,75;	0,0;	0,0
711,5889892578125;	192,25;	0,0;	0,0
711,6996459960938;	190,75;	0,0;	0,0
711,8102416992188;	189,0;	0,0;	0,0
711,9208374023438;	200,75;	0,0;	0,0
712,0313720703125;	195,75;	0,0;	0,0
712,1419677734375;	186,5;	0,0;	0,0
712,25244140625;	196,25;	0,0;	0,0
712,3629760742188;	200,5;	0,0;	0,0
712,4735107421875;	192,25;	0,0;	0,0
712,5839233398438;	194,25;	0,0;	0,0
712,6943359375;	199,25;	0,0;	0,0
712,8048095703125;	189,5;	0,0;	0,0
712,9152221679688;	189,75;	0,0;	0,0
713,0255737304688;	192,5;	0,0;	0,0
713,1359252929688;	182,5;	0,0;	0,0
713,246337890625;	187,5;	0,0;	0,0
713,3566284179688;	193,25;	0,0;	0,0
713,4669799804688;	196,25;	0,0;	0,0
713,5772705078125;	200,75;	0,0;	0,0
713,6875;	193,25;	0,0;	0,0
713,7977294921875;	201,75;	0,0;	0,0
713,9080200195312;	199,5;	0,0;	0,0
714,0182495117188;	202,5;	0,0;	0,0
714,12841796875;	189,75;	0,0;	0,0
714,2385864257812;	199,0;	0,0;	0,0
714,3487548828125;	192,25;	0,0;	0,0
714,4588623046875;	193,75;	0,0;	0,0
714,5690307617188;	198,25;	0,0;	0,0
714,6791381835938;	214,25;	0,0;	0,0
714,7891235351562;	284,5;	0,0;	0,0
714,8992309570312;	252,0;	0,0;	0,0
715,00927734375;	216,75;	0,0;	0,0
715,1192626953125;	194,0;	0,0;	0,0
715,229248046875;	208,0;	0,0;	0,0
715,3392944335938;	205,25;	0,0;	0,0
715,44921875;	215,0;	0,0;	0,0
715,5591430664062;	224,75;	0,0;	0,0
715,6690673828125;	250,5;	0,0;	0,0
715,7789916992188;	275,0;	0,0;	0,0
715,8888549804688;	251,0;	0,0;	0,0
715,9987182617188;	237,5;	0,0;	0,0
716,108642578125;	228,75;	0,0;	0,0
716,2183837890625;	207,25;	0,0;	0,0
716,3281860351562;	210,5;	0,0;	0,0
716,43798828125;	202,0;	0,0;	0,0
716,5477294921875;	214,75;	0,0;	0,0
716,657470703125;	198,25;	0,0;	0,0
716,7672119140625;	206,0;	0,0;	0,0
716,8768920898438;	208,75;	0,0;	0,0
716,9866333007812;	200,5;	0,0;	0,0
717,0963134765625;	195,75;	0,0;	0,0
717,2058715820312;	205,5;	0,0;	0,0
717,3155517578125;	192,5;	0,0;	0,0
717,4251708984375;	201,25;	0,0;	0,0
717,5347290039062;	201,25;	0,0;	0,0
717,644287109375;	185,75;	0,0;	0,0
717,75390625;	194,25;	0,0;	0,0
717,8634033203125;	192,75;	0,0;	0,0
717,9728393554688;	187,0;	0,0;	0,0
718,0823974609375;	193,0;	0,0;	0,0
718,19189453125;	194,75;	0,0;	0,0
718,30126953125;	198,0;	0,0;	0,0
718,4107666015625;	179,75;	0,0;	0,0
718,5202026367188;	204,0;	0,0;	0,0
718,6295166015625;	193,5;	0,0;	0,0
718,7388916015625;	206,75;	0,0;	0,0
718,8482666015625;	193,0;	0,0;	0,0
718,9576416015625;	206,25;	0,0;	0,0
719,06689453125;	195,0;	0,0;	0,0
719,1762084960938;	201,75;	0,0;	0,0
719,2854614257812;	193,75;	0,0;	0,0
719,394775390625;	203,0;	0,0;	0,0
719,5039672851562;	187,0;	0,0;	0,0
719,6132202148438;	189,5;	0,0;	0,0
719,722412109375;	193,75;	0,0;	0,0
719,83154296875;	201,25;	0,0;	0,0
719,9407348632812;	196,0;	0,0;	0,0
720,0498657226562;	188,5;	0,0;	0,0
720,1589965820312;	222,75;	0,0;	0,0
720,26806640625;	217,25;	0,0;	0,0
720,3771362304688;	203,0;	0,0;	0,0
720,4862060546875;	182,5;	0,0;	0,0
720,5952758789062;	200,75;	0,0;	0,0
720,7042846679688;	194,75;	0,0;	0,0
720,8132934570312;	197,0;	0,0;	0,0
720,9223022460938;	193,0;	0,0;	0,0
721,03125;	184,25;	0,0;	0,0
721,14013671875;	191,75;	0,0;	0,0
721,2490844726562;	192,75;	0,0;	0,0
721,3580322265625;	187,0;	0,0;	0,0
721,4668579101562;	179,0;	0,0;	0,0
721,57568359375;	189,0;	0,0;	0,0
721,6845703125;	203,25;	0,0;	0,0
721,7933959960938;	201,75;	0,0;	0,0
721,9022216796875;	201,0;	0,0;	0,0
722,010986328125;	199,5;	0,0;	0,0
722,1197509765625;	198,0;	0,0;	0,0
722,2284545898438;	192,5;	0,0;	0,0
722,3372192382812;	204,25;	0,0;	0,0
722,4459228515625;	198,5;	0,0;	0,0
722,5546264648438;	195,25;	0,0;	0,0
722,6632690429688;	197,5;	0,0;	0,0
722,7718505859375;	190,25;	0,0;	0,0
722,8804931640625;	201,5;	0,0;	0,0
722,9891357421875;	203,25;	0,0;	0,0
723,0977783203125;	201,0;	0,0;	0,0
723,206298828125;	201,25;	0,0;	0,0
723,3148803710938;	192,0;	0,0;	0,0
723,4234008789062;	215,25;	0,0;	0,0
723,5319213867188;	192,0;	0,0;	0,0
723,6403198242188;	195,0;	0,0;	0,0
723,7488403320312;	187,5;	0,0;	0,0
723,8572387695312;	198,0;	0,0;	0,0
723,9657592773438;	192,0;	0,0;	0,0
724,0740966796875;	190,5;	0,0;	0,0
724,1824951171875;	195,0;	0,0;	0,0
724,2908325195312;	183,75;	0,0;	0,0
724,3992309570312;	194,0;	0,0;	0,0
724,507568359375;	201,0;	0,0;	0,0
724,6158447265625;	209,25;	0,0;	0,0
724,7241821289062;	195,0;	0,0;	0,0
724,8324584960938;	194,25;	0,0;	0,0
724,940673828125;	197,0;	0,0;	0,0
725,0489501953125;	203,0;	0,0;	0,0
725,1571655273438;	201,0;	0,0;	0,0
725,2653198242188;	197,0;	0,0;	0,0
725,3734741210938;	187,0;	0,0;	0,0
725,4816284179688;	191,5;	0,0;	0,0
725,5897216796875;	195,0;	0,0;	0,0
725,6978759765625;	195,5;	0,0;	0,0
725,8060302734375;	213,5;	0,0;	0,0
725,9141235351562;	208,5;	0,0;	0,0
726,0220947265625;	193,75;	0,0;	0,0
726,130126953125;	194,0;	0,0;	0,0
726,2381591796875;	195,75;	0,0;	0,0
726,3461303710938;	199,75;	0,0;	0,0
726,4541625976562;	196,75;	0,0;	0,0
726,5620727539062;	192,75;	0,0;	0,0
726,6700439453125;	194,0;	0,0;	0,0
726,7779541015625;	196,25;	0,0;	0,0
726,8858032226562;	197,75;	0,0;	0,0
726,99365234375;	199,25;	0,0;	0,0
727,1015625;	197,75;	0,0;	0,0
727,2094116210938;	198,5;	0,0;	0,0
727,3172607421875;	197,5;	0,0;	0,0
727,4249877929688;	202,75;	0,0;	0,0
727,5327758789062;	193,5;	0,0;	0,0
727,6405029296875;	192,75;	0,0;	0,0
727,748291015625;	203,75;	0,0;	0,0
727,8560180664062;	184,25;	0,0;	0,0
727,9636840820312;	185,75;	0,0;	0,0
728,0713500976562;	191,25;	0,0;	0,0
728,1790161132812;	197,75;	0,0;	0,0
728,2865600585938;	200,25;	0,0;	0,0
728,3942260742188;	198,5;	0,0;	0,0
728,5018310546875;	190,25;	0,0;	0,0
728,6094360351562;	191,5;	0,0;	0,0
728,7169189453125;	198,75;	0,0;	0,0
728,8245239257812;	196,0;	0,0;	0,0
728,9320678710938;	193,75;	0,0;	0,0
729,0394897460938;	189,0;	0,0;	0,0
729,14697265625;	196,25;	0,0;	0,0
729,2545166015625;	208,75;	0,0;	0,0
729,3619384765625;	190,5;	0,0;	0,0
729,4693603515625;	198,25;	0,0;	0,0
729,5767822265625;	198,5;	0,0;	0,0
729,68408203125;	208,0;	0,0;	0,0
729,7914428710938;	201,75;	0,0;	0,0
729,8988037109375;	190,75;	0,0;	0,0
730,0061645507812;	197,5;	0,0;	0,0
730,1134033203125;	188,75;	0,0;	0,0
730,2206420898438;	187,0;	0,0;	0,0
730,327880859375;	202,75;	0,0;	0,0
730,4351806640625;	208,25;	0,0;	0,0
730,5424194335938;	200,25;	0,0;	0,0
730,649658203125;	206,25;	0,0;	0,0
730,7567749023438;	193,0;	0,0;	0,0
730,8639526367188;	197,25;	0,0;	0,0
730,9710693359375;	199,0;	0,0;	0,0
731,0781860351562;	198,5;	0,0;	0,0
731,185302734375;	198,5;	0,0;	0,0
731,2923583984375;	204,5;	0,0;	0,0
731,3994750976562;	209,0;	0,0;	0,0
731,5064697265625;	198,5;	0,0;	0,0
731,613525390625;	205,75;	0,0;	0,0
731,720458984375;	203,25;	0,0;	0,0
731,8274536132812;	195,75;	0,0;	0,0
731,9344482421875;	203,5;	0,0;	0,0
732,0413818359375;	193,25;	0,0;	0,0
732,1482543945312;	209,25;	0,0;	0,0
732,2551879882812;	204,5;	0,0;	0,0
732,362060546875;	209,25;	0,0;	0,0
732,4689331054688;	214,75;	0,0;	0,0
732,5757446289062;	232,0;	0,0;	0,0
732,6825561523438;	207,5;	0,0;	0,0
732,7894287109375;	201,25;	0,0;	0,0
732,8961181640625;	201,5;	0,0;	0,0
733,0029296875;	207,25;	0,0;	0,0
733,1096801757812;	203,5;	0,0;	0,0
733,2163696289062;	208,75;	0,0;	0,0
733,3231201171875;	212,5;	0,0;	0,0
733,4298095703125;	201,25;	0,0;	0,0
733,5364379882812;	203,0;	0,0;	0,0
733,64306640625;	213,25;	0,0;	0,0
733,7496337890625;	204,25;	0,0;	0,0
733,8562622070312;	190,75;	0,0;	0,0
733,9628295898438;	214,5;	0,0;	0,0
734,0694580078125;	196,5;	0,0;	0,0
734,1759033203125;	186,5;	0,0;	0,0
734,282470703125;	198,5;	0,0;	0,0
734,3889770507812;	194,75;	0,0;	0,0
734,4954223632812;	204,25;	0,0;	0,0
734,6018676757812;	212,75;	0,0;	0,0
734,7083129882812;	195,75;	0,0;	0,0
734,8148193359375;	188,25;	0,0;	0,0
734,921142578125;	202,25;	0,0;	0,0
735,0275268554688;	203,0;	0,0;	0,0
735,1338500976562;	203,25;	0,0;	0,0
735,2401733398438;	194,25;	0,0;	0,0
735,3464965820312;	206,0;	0,0;	0,0
735,4528198242188;	202,0;	0,0;	0,0
735,55908203125;	192,5;	0,0;	0,0
735,6653442382812;	200,0;	0,0;	0,0
735,7716674804688;	198,0;	0,0;	0,0
735,8777465820312;	203,0;	0,0;	0,0
735,9840087890625;	200,0;	0,0;	0,0
736,0902099609375;	206,75;	0,0;	0,0
736,1963500976562;	187,0;	0,0;	0,0
736,302490234375;	201,0;	0,0;	0,0
736,4086303710938;	197,0;	0,0;	0,0
736,5147094726562;	206,5;	0,0;	0,0
736,6207885742188;	200,75;	0,0;	0,0
736,7268676757812;	211,5;	0,0;	0,0
736,8328857421875;	213,0;	0,0;	0,0
736,9389038085938;	184,5;	0,0;	0,0
737,044921875;	210,75;	0,0;	0,0
737,15087890625;	202,75;	0,0;	0,0
737,2568359375;	199,25;	0,0;	0,0
737,36279296875;	207,0;	0,0;	0,0
737,4686889648438;	192,75;	0,0;	0,0
737,5745239257812;	200,75;	0,0;	0,0
737,680419921875;	197,75;	0,0;	0,0
737,7863159179688;	197,5;	0,0;	0,0
737,89208984375;	194,0;	0,0;	0,0
737,9979248046875;	205,75;	0,0;	0,0
738,103759765625;	200,75;	0,0;	0,0
738,2095336914062;	210,25;	0,0;	0,0
738,3152465820312;	197,75;	0,0;	0,0
738,4210205078125;	214,0;	0,0;	0,0
738,5266723632812;	201,75;	0,0;	0,0
738,6323852539062;	191,75;	0,0;	0,0
738,7380981445312;	208,0;	0,0;	0,0
738,84375;	203,25;	0,0;	0,0
738,9493408203125;	197,0;	0,0;	0,0
739,0549926757812;	203,25;	0,0;	0,0
739,1605834960938;	193,25;	0,0;	0,0
739,26611328125;	205,5;	0,0;	0,0
739,3717041015625;	209,5;	0,0;	0,0
739,477294921875;	221,0;	0,0;	0,0
739,582763671875;	205,0;	0,0;	0,0
739,688232421875;	206,0;	0,0;	0,0
739,7937622070312;	193,75;	0,0;	0,0
739,8991088867188;	195,25;	0,0;	0,0
740,0045776367188;	191,0;	0,0;	0,0
740,1099853515625;	212,5;	0,0;	0,0
740,2153930664062;	203,0;	0,0;	0,0
740,32080078125;	206,75;	0,0;	0,0
740,4261474609375;	194,5;	0,0;	0,0
740,5314331054688;	200,5;	0,0;	0,0
740,63671875;	198,75;	0,0;	0,0
740,7420043945312;	220,0;	0,0;	0,0
740,8473510742188;	213,25;	0,0;	0,0
740,9525146484375;	207,75;	0,0;	0,0
741,0578002929688;	194,75;	0,0;	0,0
741,1630249023438;	202,25;	0,0;	0,0
741,2681884765625;	207,0;	0,0;	0,0
741,3733520507812;	218,5;	0,0;	0,0
741,478515625;	211,75;	0,0;	0,0
741,5836181640625;	208,25;	0,0;	0,0
741,688720703125;	238,0;	0,0;	0,0
741,7938232421875;	218,5;	0,0;	0,0
741,8988647460938;	225,25;	0,0;	0,0
742,00390625;	237,25;	0,0;	0,0
742,1089477539062;	266,0;	0,0;	0,0
742,2139892578125;	315,5;	0,0;	0,0
742,3189697265625;	435,75;	0,0;	0,0
742,4239501953125;	521,5;	0,0;	0,0
742,5288696289062;	428,5;	0,0;	0,0
742,6337890625;	343,0;	0,0;	0,0
742,7387084960938;	285,75;	0,0;	0,0
742,8436279296875;	257,25;	0,0;	0,0
742,948486328125;	250,75;	0,0;	0,0
743,0532836914062;	249,25;	0,0;	0,0
743,1581420898438;	239,0;	0,0;	0,0
743,262939453125;	242,75;	0,0;	0,0
743,36767578125;	240,0;	0,0;	0,0
743,4724731445312;	239,75;	0,0;	0,0
743,5772094726562;	241,0;	0,0;	0,0
743,681884765625;	250,5;	0,0;	0,0
743,78662109375;	254,25;	0,0;	0,0
743,8912963867188;	264,5;	0,0;	0,0
743,9959106445312;	329,25;	0,0;	0,0
744,1005859375;	471,5;	0,0;	0,0
744,2052001953125;	780,75;	0,0;	0,0
744,3097534179688;	781,5;	0,0;	0,0
744,4143676757812;	549,25;	0,0;	0,0
744,5189819335938;	419,0;	0,0;	0,0
744,6234741210938;	370,25;	0,0;	0,0
744,72802734375;	320,25;	0,0;	0,0
744,8325805664062;	294,75;	0,0;	0,0
744,93701171875;	285,0;	0,0;	0,0
745,0414428710938;	266,5;	0,0;	0,0
745,1458740234375;	254,0;	0,0;	0,0
745,2503051757812;	260,0;	0,0;	0,0
745,3546752929688;	237,25;	0,0;	0,0
745,4590454101562;	257,5;	0,0;	0,0
745,5634765625;	243,75;	0,0;	0,0
745,667724609375;	239,5;	0,0;	0,0
745,7720947265625;	230,0;	0,0;	0,0
745,8764038085938;	248,0;	0,0;	0,0
745,9805908203125;	241,25;	0,0;	0,0
746,0848999023438;	251,25;	0,0;	0,0
746,1891479492188;	267,25;	0,0;	0,0
746,2933959960938;	282,0;	0,0;	0,0
746,3975219726562;	283,0;	0,0;	0,0
746,501708984375;	309,5;	0,0;	0,0
746,6058349609375;	384,0;	0,0;	0,0
746,7100219726562;	661,0;	0,0;	0,0
746,8140869140625;	1157,0;	0,0;	0,0
746,918212890625;	1086,0;	0,0;	0,0
747,022216796875;	801,75;	0,0;	0,0
747,1262817382812;	582,0;	0,0;	0,0
747,2302856445312;	459,5;	0,0;	0,0
747,3343505859375;	416,0;	0,0;	0,0
747,4383544921875;	355,0;	0,0;	0,0
747,5422973632812;	333,75;	0,0;	0,0
747,6461791992188;	334,0;	0,0;	0,0
747,7501831054688;	323,25;	0,0;	0,0
747,8540649414062;	299,0;	0,0;	0,0
747,9579467773438;	290,0;	0,0;	0,0
748,0618286132812;	292,25;	0,0;	0,0
748,1656494140625;	278,0;	0,0;	0,0
748,26953125;	261,0;	0,0;	0,0
748,373291015625;	263,5;	0,0;	0,0
748,47705078125;	251,5;	0,0;	0,0
748,580810546875;	246,5;	0,0;	0,0
748,6845703125;	227,5;	0,0;	0,0
748,7882690429688;	244,0;	0,0;	0,0
748,8920288085938;	243,75;	0,0;	0,0
748,9956665039062;	239,75;	0,0;	0,0
749,099365234375;	229,25;	0,0;	0,0
749,2030029296875;	231,75;	0,0;	0,0
749,3065795898438;	225,0;	0,0;	0,0
749,4102172851562;	226,75;	0,0;	0,0
749,5137939453125;	225,25;	0,0;	0,0
749,6173706054688;	222,0;	0,0;	0,0
749,7208862304688;	219,75;	0,0;	0,0
749,8244018554688;	211,5;	0,0;	0,0
749,9278564453125;	210,75;	0,0;	0,0
750,0313720703125;	222,5;	0,0;	0,0
750,1348266601562;	204,0;	0,0;	0,0
750,23828125;	227,75;	0,0;	0,0
750,3416748046875;	216,75;	0,0;	0,0
750,445068359375;	227,75;	0,0;	0,0
750,54833984375;	212,75;	0,0;	0,0
750,6517944335938;	214,0;	0,0;	0,0
750,755126953125;	216,25;	0,0;	0,0
750,8584594726562;	207,25;	0,0;	0,0
750,9617309570312;	209,75;	0,0;	0,0
751,0650024414062;	207,25;	0,0;	0,0
751,1682739257812;	212,5;	0,0;	0,0
751,271484375;	196,5;	0,0;	0,0
751,3746337890625;	215,5;	0,0;	0,0
751,4779052734375;	221,75;	0,0;	0,0
751,5811157226562;	209,0;	0,0;	0,0
751,6841430664062;	213,25;	0,0;	0,0
751,787353515625;	209,25;	0,0;	0,0
751,890380859375;	216,75;	0,0;	0,0
751,9934692382812;	217,75;	0,0;	0,0
752,0965576171875;	208,0;	0,0;	0,0
752,1996459960938;	219,0;	0,0;	0,0
752,3026123046875;	205,5;	0,0;	0,0
752,4056396484375;	207,25;	0,0;	0,0
752,5086059570312;	213,75;	0,0;	0,0
752,6115112304688;	198,5;	0,0;	0,0
752,7144775390625;	201,0;	0,0;	0,0
752,8174438476562;	225,75;	0,0;	0,0
752,92041015625;	218,0;	0,0;	0,0
753,023193359375;	217,25;	0,0;	0,0
753,1260986328125;	210,25;	0,0;	0,0
753,2288818359375;	210,0;	0,0;	0,0
753,3317260742188;	211,75;	0,0;	0,0
753,4345703125;	198,0;	0,0;	0,0
753,537353515625;	198,5;	0,0;	0,0
753,6400146484375;	213,0;	0,0;	0,0
753,7427978515625;	208,5;	0,0;	0,0
753,845458984375;	210,25;	0,0;	0,0
753,9481811523438;	207,0;	0,0;	0,0
754,0508422851562;	205,25;	0,0;	0,0
754,153564453125;	207,0;	0,0;	0,0
754,2561645507812;	212,25;	0,0;	0,0
754,3587646484375;	203,5;	0,0;	0,0
754,4613647460938;	199,0;	0,0;	0,0
754,5639038085938;	208,5;	0,0;	0,0
754,6664428710938;	212,5;	0,0;	0,0
754,7689819335938;	201,0;	0,0;	0,0
754,8715209960938;	200,75;	0,0;	0,0
754,9739379882812;	197,5;	0,0;	0,0
755,0764770507812;	202,75;	0,0;	0,0
755,1788330078125;	202,25;	0,0;	0,0
755,2813110351562;	199,5;	0,0;	0,0
755,3837280273438;	199,25;	0,0;	0,0
755,4861450195312;	210,75;	0,0;	0,0
755,5885009765625;	208,25;	0,0;	0,0
755,6908569335938;	211,5;	0,0;	0,0
755,7930908203125;	199,25;	0,0;	0,0
755,8954467773438;	195,0;	0,0;	0,0
755,9976806640625;	195,25;	0,0;	0,0
756,0999755859375;	204,0;	0,0;	0,0
756,2022094726562;	200,75;	0,0;	0,0
756,3043823242188;	212,0;	0,0;	0,0
756,4066772460938;	216,5;	0,0;	0,0
756,5087280273438;	198,5;	0,0;	0,0
756,6109619140625;	197,0;	0,0;	0,0
756,7130737304688;	202,75;	0,0;	0,0
756,8152465820312;	202,0;	0,0;	0,0
756,9172973632812;	201,75;	0,0;	0,0
757,0194091796875;	204,75;	0,0;	0,0
757,1213989257812;	191,5;	0,0;	0,0
757,2234497070312;	204,75;	0,0;	0,0
757,3255004882812;	201,0;	0,0;	0,0
757,4274291992188;	195,25;	0,0;	0,0
757,5294189453125;	190,75;	0,0;	0,0
757,63134765625;	196,25;	0,0;	0,0
757,7333374023438;	202,25;	0,0;	0,0
757,8351440429688;	205,0;	0,0;	0,0
757,9371337890625;	199,0;	0,0;	0,0
758,0389404296875;	194,25;	0,0;	0,0
758,140869140625;	205,5;	0,0;	0,0
758,2426147460938;	197,0;	0,0;	0,0
758,3444213867188;	199,5;	0,0;	0,0
758,4461669921875;	184,0;	0,0;	0,0
758,5479125976562;	201,5;	0,0;	0,0
758,6497192382812;	197,25;	0,0;	0,0
758,7514038085938;	199,5;	0,0;	0,0
758,8530883789062;	201,75;	0,0;	0,0
758,954833984375;	198,5;	0,0;	0,0
759,0564575195312;	202,25;	0,0;	0,0
759,1580810546875;	201,0;	0,0;	0,0
759,2597045898438;	182,75;	0,0;	0,0
759,361328125;	196,25;	0,0;	0,0
759,4628295898438;	192,75;	0,0;	0,0
759,564453125;	190,0;	0,0;	0,0
759,6659545898438;	185,0;	0,0;	0,0
759,7674560546875;	198,75;	0,0;	0,0
759,8690185546875;	186,5;	0,0;	0,0
759,970458984375;	209,75;	0,0;	0,0
760,0719604492188;	210,0;	0,0;	0,0
760,17333984375;	196,5;	0,0;	0,0
760,2747802734375;	199,75;	0,0;	0,0
760,3760986328125;	204,25;	0,0;	0,0
760,4774169921875;	205,75;	0,0;	0,0
760,5787963867188;	186,0;	0,0;	0,0
760,68017578125;	190,25;	0,0;	0,0
760,781494140625;	200,25;	0,0;	0,0
760,8827514648438;	194,0;	0,0;	0,0
760,9840087890625;	194,25;	0,0;	0,0
761,085205078125;	190,5;	0,0;	0,0
761,1864624023438;	186,0;	0,0;	0,0
761,2876586914062;	201,0;	0,0;	0,0
761,388916015625;	206,0;	0,0;	0,0
761,489990234375;	201,5;	0,0;	0,0
761,5911254882812;	201,75;	0,0;	0,0
761,6921997070312;	192,0;	0,0;	0,0
761,7933349609375;	199,0;	0,0;	0,0
761,8944702148438;	204,5;	0,0;	0,0
761,9954833984375;	213,75;	0,0;	0,0
762,0964965820312;	202,25;	0,0;	0,0
762,197509765625;	201,0;	0,0;	0,0
762,2984619140625;	200,0;	0,0;	0,0
762,3994750976562;	195,75;	0,0;	0,0
762,5004272460938;	184,75;	0,0;	0,0
762,601318359375;	203,5;	0,0;	0,0
762,7022705078125;	187,5;	0,0;	0,0
762,8031616210938;	209,0;	0,0;	0,0
762,9039916992188;	194,75;	0,0;	0,0
763,0048217773438;	198,25;	0,0;	0,0
763,1056518554688;	195,75;	0,0;	0,0
763,2064819335938;	206,75;	0,0;	0,0
763,3073120117188;	194,0;	0,0;	0,0
763,4080200195312;	225,75;	0,0;	0,0
763,5087280273438;	227,5;	0,0;	0,0
763,6094360351562;	212,25;	0,0;	0,0
763,7101440429688;	208,25;	0,0;	0,0
763,8108520507812;	201,0;	0,0;	0,0
763,9115600585938;	218,75;	0,0;	0,0
764,0121459960938;	211,25;	0,0;	0,0
764,1127319335938;	195,5;	0,0;	0,0
764,2133178710938;	190,0;	0,0;	0,0
764,3139038085938;	201,5;	0,0;	0,0
764,4144897460938;	202,25;	0,0;	0,0
764,5150146484375;	197,0;	0,0;	0,0
764,6155395507812;	199,25;	0,0;	0,0
764,7159423828125;	210,0;	0,0;	0,0
764,8164672851562;	190,25;	0,0;	0,0
764,9168701171875;	200,5;	0,0;	0,0
765,017333984375;	204,0;	0,0;	0,0
765,1177368164062;	204,5;	0,0;	0,0
765,2181396484375;	203,0;	0,0;	0,0
765,3184204101562;	203,0;	0,0;	0,0
765,4187622070312;	200,75;	0,0;	0,0
765,5191040039062;	198,5;	0,0;	0,0
765,619384765625;	205,75;	0,0;	0,0
765,7196655273438;	206,5;	0,0;	0,0
765,8199462890625;	208,5;	0,0;	0,0
765,920166015625;	205,25;	0,0;	0,0
766,0203857421875;	215,25;	0,0;	0,0
766,12060546875;	223,25;	0,0;	0,0
766,2207641601562;	269,75;	0,0;	0,0
766,3209228515625;	447,25;	0,0;	0,0
766,4210815429688;	966,0;	0,0;	0,0
766,521240234375;	674,0;	0,0;	0,0
766,6212158203125;	292,0;	0,0;	0,0
766,7213745117188;	219,75;	0,0;	0,0
766,8213500976562;	215,0;	0,0;	0,0
766,92138671875;	218,5;	0,0;	0,0
767,0214233398438;	213,5;	0,0;	0,0
767,1213989257812;	215,0;	0,0;	0,0
767,2213134765625;	215,75;	0,0;	0,0
767,3212890625;	207,0;	0,0;	0,0
767,4212646484375;	200,25;	0,0;	0,0
767,5211181640625;	212,75;	0,0;	0,0
767,6209716796875;	211,5;	0,0;	0,0
767,7208251953125;	202,25;	0,0;	0,0
767,8207397460938;	212,0;	0,0;	0,0
767,9204711914062;	205,5;	0,0;	0,0
768,0203247070312;	195,75;	0,0;	0,0
768,1199951171875;	207,25;	0,0;	0,0
768,2197875976562;	198,0;	0,0;	0,0
768,319580078125;	210,0;	0,0;	0,0
768,4192504882812;	196,25;	0,0;	0,0
768,5189208984375;	198,75;	0,0;	0,0
768,6185913085938;	204,5;	0,0;	0,0
768,7182006835938;	213,0;	0,0;	0,0
768,81787109375;	212,5;	0,0;	0,0
768,91748046875;	205,0;	0,0;	0,0
769,01708984375;	201,75;	0,0;	0,0
769,1165771484375;	196,25;	0,0;	0,0
769,2161865234375;	204,5;	0,0;	0,0
769,315673828125;	215,75;	0,0;	0,0
769,4151611328125;	203,5;	0,0;	0,0
769,5146484375;	216,25;	0,0;	0,0
769,6141357421875;	241,5;	0,0;	0,0
769,713623046875;	350,75;	0,0;	0,0
769,8129272460938;	683,25;	0,0;	0,0
769,912353515625;	561,75;	0,0;	0,0
770,0116577148438;	274,0;	0,0;	0,0
770,111083984375;	222,75;	0,0;	0,0
770,2103881835938;	212,25;	0,0;	0,0
770,3097534179688;	200,5;	0,0;	0,0
770,408935546875;	209,25;	0,0;	0,0
770,5082397460938;	208,0;	0,0;	0,0
770,6075439453125;	205,75;	0,0;	0,0
770,7067260742188;	208,0;	0,0;	0,0
770,8059692382812;	216,25;	0,0;	0,0
770,9051513671875;	224,5;	0,0;	0,0
771,0042724609375;	207,5;	0,0;	0,0
771,1033935546875;	217,25;	0,0;	0,0
771,2025146484375;	192,0;	0,0;	0,0
771,3016357421875;	213,0;	0,0;	0,0
771,400634765625;	215,25;	0,0;	0,0
771,499755859375;	204,75;	0,0;	0,0
771,5988159179688;	218,0;	0,0;	0,0
771,6978149414062;	202,0;	0,0;	0,0
771,7968139648438;	215,5;	0,0;	0,0
771,8956909179688;	202,5;	0,0;	0,0
771,9946899414062;	211,75;	0,0;	0,0
772,0936279296875;	208,5;	0,0;	0,0
772,1925659179688;	207,0;	0,0;	0,0
772,2913818359375;	219,25;	0,0;	0,0
772,3902587890625;	206,25;	0,0;	0,0
772,4891357421875;	230,25;	0,0;	0,0
772,587890625;	209,25;	0,0;	0,0
772,6867065429688;	212,5;	0,0;	0,0
772,7855224609375;	207,5;	0,0;	0,0
772,88427734375;	218,5;	0,0;	0,0
772,9830322265625;	216,5;	0,0;	0,0
773,081787109375;	200,5;	0,0;	0,0
773,1803588867188;	218,25;	0,0;	0,0
773,2791137695312;	210,75;	0,0;	0,0
773,3777465820312;	219,25;	0,0;	0,0
773,4764404296875;	220,25;	0,0;	0,0
773,574951171875;	208,75;	0,0;	0,0
773,673583984375;	223,0;	0,0;	0,0
773,7721557617188;	222,75;	0,0;	0,0
773,8706665039062;	216,5;	0,0;	0,0
773,96923828125;	227,5;	0,0;	0,0
774,0677490234375;	212,25;	0,0;	0,0
774,1661987304688;	220,0;	0,0;	0,0
774,2646484375;	230,75;	0,0;	0,0
774,3630981445312;	210,25;	0,0;	0,0
774,4614868164062;	222,25;	0,0;	0,0
774,5598754882812;	212,0;	0,0;	0,0
774,6583251953125;	231,5;	0,0;	0,0
774,7566528320312;	225,75;	0,0;	0,0
774,8549194335938;	200,0;	0,0;	0,0
774,9533081054688;	234,0;	0,0;	0,0
775,051513671875;	225,0;	0,0;	0,0
775,1498413085938;	227,75;	0,0;	0,0
775,248046875;	229,75;	0,0;	0,0
775,3463134765625;	235,0;	0,0;	0,0
775,4445190429688;	243,5;	0,0;	0,0
775,542724609375;	242,0;	0,0;	0,0
775,640869140625;	254,75;	0,0;	0,0
775,7389526367188;	248,75;	0,0;	0,0
775,8370361328125;	267,5;	0,0;	0,0
775,9352416992188;	285,25;	0,0;	0,0
776,0332641601562;	293,5;	0,0;	0,0
776,13134765625;	281,25;	0,0;	0,0
776,2293701171875;	311,25;	0,0;	0,0
776,3273315429688;	328,25;	0,0;	0,0
776,4253540039062;	350,5;	0,0;	0,0
776,5233154296875;	390,75;	0,0;	0,0
776,6212768554688;	423,5;	0,0;	0,0
776,7191772460938;	488,0;	0,0;	0,0
776,817138671875;	637,0;	0,0;	0,0
776,9150390625;	855,25;	0,0;	0,0
777,0128173828125;	1310,75;	0,0;	0,0
777,1107177734375;	2242,25;	0,0;	0,0
777,20849609375;	2398,0;	0,0;	0,0
777,306396484375;	2318,0;	0,0;	0,0
777,4041137695312;	2431,0;	0,0;	0,0
777,5018310546875;	2087,75;	0,0;	0,0
777,5995483398438;	1429,5;	0,0;	0,0
777,6973266601562;	939,0;	0,0;	0,0
777,7950439453125;	710,0;	0,0;	0,0
777,8926391601562;	571,5;	0,0;	0,0
777,9902954101562;	471,25;	0,0;	0,0
778,0879516601562;	419,25;	0,0;	0,0
778,1854858398438;	407,5;	0,0;	0,0
778,2830810546875;	374,0;	0,0;	0,0
778,3806762695312;	352,75;	0,0;	0,0
778,4782104492188;	338,0;	0,0;	0,0
778,5757446289062;	321,0;	0,0;	0,0
778,6732177734375;	315,25;	0,0;	0,0
778,7706909179688;	302,0;	0,0;	0,0
778,8681640625;	278,25;	0,0;	0,0
778,9656372070312;	258,0;	0,0;	0,0
779,0630493164062;	263,0;	0,0;	0,0
779,1604614257812;	265,0;	0,0;	0,0
779,2577514648438;	249,5;	0,0;	0,0
779,3551025390625;	258,5;	0,0;	0,0
779,4524536132812;	246,0;	0,0;	0,0
779,5497436523438;	245,5;	0,0;	0,0
779,6470336914062;	240,0;	0,0;	0,0
779,7443237304688;	244,25;	0,0;	0,0
779,841552734375;	240,75;	0,0;	0,0
779,9387817382812;	250,0;	0,0;	0,0
780,035888671875;	237,75;	0,0;	0,0
780,1331176757812;	236,5;	0,0;	0,0
780,2303466796875;	223,5;	0,0;	0,0
780,3274536132812;	230,75;	0,0;	0,0
780,4244995117188;	226,5;	0,0;	0,0
780,5216064453125;	224,25;	0,0;	0,0
780,6187133789062;	244,25;	0,0;	0,0
780,7157592773438;	226,75;	0,0;	0,0
780,812744140625;	222,25;	0,0;	0,0
780,9098510742188;	221,75;	0,0;	0,0
781,0067749023438;	212,5;	0,0;	0,0
781,1036987304688;	230,5;	0,0;	0,0
781,20068359375;	210,75;	0,0;	0,0
781,2975463867188;	212,5;	0,0;	0,0
781,3944702148438;	218,25;	0,0;	0,0
781,4913940429688;	211,25;	0,0;	0,0
781,5882568359375;	223,75;	0,0;	0,0
781,68505859375;	221,75;	0,0;	0,0
781,7819213867188;	214,25;	0,0;	0,0
781,878662109375;	227,5;	0,0;	0,0
781,9754028320312;	201,5;	0,0;	0,0
782,0721435546875;	202,75;	0,0;	0,0
782,1689453125;	210,25;	0,0;	0,0
782,265625;	211,5;	0,0;	0,0
782,3622436523438;	204,25;	0,0;	0,0
782,458984375;	209,75;	0,0;	0,0
782,5555419921875;	215,75;	0,0;	0,0
782,6522216796875;	211,0;	0,0;	0,0
782,7488403320312;	208,25;	0,0;	0,0
782,8453979492188;	207,5;	0,0;	0,0
782,9419555664062;	204,75;	0,0;	0,0
783,0384521484375;	195,25;	0,0;	0,0
783,1349487304688;	216,5;	0,0;	0,0
783,2314453125;	198,0;	0,0;	0,0
783,3279418945312;	203,75;	0,0;	0,0
783,4243774414062;	210,75;	0,0;	0,0
783,5208129882812;	199,0;	0,0;	0,0
783,6171875;	214,25;	0,0;	0,0
783,7135620117188;	206,5;	0,0;	0,0
783,8098754882812;	212,25;	0,0;	0,0
783,90625;	205,75;	0,0;	0,0
784,0025634765625;	191,5;	0,0;	0,0
784,0989379882812;	191,5;	0,0;	0,0
784,1951904296875;	200,25;	0,0;	0,0
784,2913818359375;	203,0;	0,0;	0,0
784,3875732421875;	208,75;	0,0;	0,0
784,48388671875;	204,25;	0,0;	0,0
784,5800170898438;	213,25;	0,0;	0,0
784,6762084960938;	217,5;	0,0;	0,0
784,7723388671875;	197,5;	0,0;	0,0
784,8684692382812;	206,25;	0,0;	0,0
784,964599609375;	194,5;	0,0;	0,0
785,0606079101562;	197,0;	0,0;	0,0
785,1566772460938;	208,75;	0,0;	0,0
785,2527465820312;	210,75;	0,0;	0,0
785,3487548828125;	202,0;	0,0;	0,0
785,4447021484375;	200,25;	0,0;	0,0
785,5407104492188;	207,5;	0,0;	0,0
785,6365966796875;	203,75;	0,0;	0,0
785,7326049804688;	198,25;	0,0;	0,0
785,8284912109375;	204,5;	0,0;	0,0
785,9243774414062;	201,5;	0,0;	0,0
786,020263671875;	198,25;	0,0;	0,0
786,1160888671875;	200,75;	0,0;	0,0
786,2118530273438;	195,0;	0,0;	0,0
786,3076782226562;	201,25;	0,0;	0,0
786,4035034179688;	207,25;	0,0;	0,0
786,4992065429688;	210,5;	0,0;	0,0
786,5949096679688;	209,75;	0,0;	0,0
786,690673828125;	191,5;	0,0;	0,0
786,7863159179688;	206,5;	0,0;	0,0
786,8820190429688;	210,0;	0,0;	0,0
786,9776611328125;	194,75;	0,0;	0,0
787,0732421875;	198,75;	0,0;	0,0
787,1689453125;	199,25;	0,0;	0,0
787,2644653320312;	206,25;	0,0;	0,0
787,3600463867188;	201,5;	0,0;	0,0
787,4555053710938;	190,75;	0,0;	0,0
787,5510864257812;	214,25;	0,0;	0,0
787,6465454101562;	202,5;	0,0;	0,0
787,7420654296875;	205,0;	0,0;	0,0
787,8374633789062;	201,75;	0,0;	0,0
787,932861328125;	210,75;	0,0;	0,0
788,0283813476562;	202,5;	0,0;	0,0
788,1236572265625;	206,75;	0,0;	0,0
788,2190551757812;	192,5;	0,0;	0,0
788,314453125;	201,25;	0,0;	0,0
788,4097900390625;	214,75;	0,0;	0,0
788,5050048828125;	203,25;	0,0;	0,0
788,600341796875;	199,25;	0,0;	0,0
788,695556640625;	198,25;	0,0;	0,0
788,790771484375;	216,0;	0,0;	0,0
788,885986328125;	210,75;	0,0;	0,0
788,981201171875;	207,0;	0,0;	0,0
789,0762939453125;	204,5;	0,0;	0,0
789,1715087890625;	208,5;	0,0;	0,0
789,2665405273438;	198,5;	0,0;	0,0
789,3616943359375;	199,25;	0,0;	0,0
789,4568481445312;	208,5;	0,0;	0,0
789,5518798828125;	199,25;	0,0;	0,0
789,6469116210938;	207,75;	0,0;	0,0
789,741943359375;	208,75;	0,0;	0,0
789,8369140625;	211,0;	0,0;	0,0
789,9318237304688;	212,25;	0,0;	0,0
790,0267944335938;	201,5;	0,0;	0,0
790,1217651367188;	202,25;	0,0;	0,0
790,2166748046875;	205,75;	0,0;	0,0
790,3115234375;	204,5;	0,0;	0,0
790,4064331054688;	205,0;	0,0;	0,0
790,5011596679688;	193,75;	0,0;	0,0
790,5960083007812;	205,0;	0,0;	0,0
790,6908569335938;	195,75;	0,0;	0,0
790,7857055664062;	194,25;	0,0;	0,0
790,88037109375;	195,5;	0,0;	0,0
790,97509765625;	198,25;	0,0;	0,0
791,06982421875;	202,5;	0,0;	0,0
791,1644897460938;	204,25;	0,0;	0,0
791,2591552734375;	205,5;	0,0;	0,0
791,3538208007812;	204,25;	0,0;	0,0
791,4484252929688;	209,0;	0,0;	0,0
791,5430297851562;	209,75;	0,0;	0,0
791,6376342773438;	214,0;	0,0;	0,0
791,7321166992188;	212,25;	0,0;	0,0
791,82666015625;	206,5;	0,0;	0,0
791,9212036132812;	208,5;	0,0;	0,0
792,0157470703125;	197,25;	0,0;	0,0
792,1101684570312;	202,5;	0,0;	0,0
792,2046508789062;	218,5;	0,0;	0,0
792,2990112304688;	196,25;	0,0;	0,0
792,3934326171875;	204,75;	0,0;	0,0
792,48779296875;	212,5;	0,0;	0,0
792,5822143554688;	199,75;	0,0;	0,0
792,676513671875;	211,25;	0,0;	0,0
792,7708129882812;	219,0;	0,0;	0,0
792,8651123046875;	200,25;	0,0;	0,0
792,9593505859375;	203,25;	0,0;	0,0
793,0536499023438;	217,25;	0,0;	0,0
793,1478881835938;	195,0;	0,0;	0,0
793,2421264648438;	213,0;	0,0;	0,0
793,3363037109375;	212,0;	0,0;	0,0
793,430419921875;	210,0;	0,0;	0,0
793,5245361328125;	207,5;	0,0;	0,0
793,61865234375;	215,5;	0,0;	0,0
793,7128295898438;	218,5;	0,0;	0,0
793,806884765625;	210,5;	0,0;	0,0
793,90087890625;	218,5;	0,0;	0,0
793,9949340820312;	231,25;	0,0;	0,0
794,0889892578125;	254,75;	0,0;	0,0
794,1829223632812;	243,75;	0,0;	0,0
794,2769165039062;	234,75;	0,0;	0,0
794,3709106445312;	252,75;	0,0;	0,0
794,46484375;	260,5;	0,0;	0,0
794,5586547851562;	294,75;	0,0;	0,0
794,652587890625;	370,25;	0,0;	0,0
794,7463989257812;	403,25;	0,0;	0,0
794,8402099609375;	365,25;	0,0;	0,0
794,93408203125;	378,25;	0,0;	0,0
795,0278930664062;	387,75;	0,0;	0,0
795,1216430664062;	389,5;	0,0;	0,0
795,2153930664062;	352,5;	0,0;	0,0
795,30908203125;	323,5;	0,0;	0,0
795,4027709960938;	282,5;	0,0;	0,0
795,4964599609375;	255,75;	0,0;	0,0
795,5901489257812;	242,25;	0,0;	0,0
795,6837158203125;	242,25;	0,0;	0,0
795,7774047851562;	235,25;	0,0;	0,0
795,8709716796875;	223,75;	0,0;	0,0
795,9644775390625;	226,75;	0,0;	0,0
796,0580444335938;	213,0;	0,0;	0,0
796,1516723632812;	225,5;	0,0;	0,0
796,2451782226562;	209,5;	0,0;	0,0
796,3385620117188;	216,25;	0,0;	0,0
796,4320678710938;	210,75;	0,0;	0,0
796,5254516601562;	216,5;	0,0;	0,0
796,6189575195312;	193,75;	0,0;	0,0
796,7122802734375;	203,25;	0,0;	0,0
796,8057250976562;	213,0;	0,0;	0,0
796,8989868164062;	211,25;	0,0;	0,0
796,9923706054688;	194,75;	0,0;	0,0
797,085693359375;	203,25;	0,0;	0,0
797,178955078125;	200,0;	0,0;	0,0
797,272216796875;	211,0;	0,0;	0,0
797,365478515625;	206,5;	0,0;	0,0
797,458740234375;	200,75;	0,0;	0,0
797,5518188476562;	190,5;	0,0;	0,0
797,6450805664062;	199,0;	0,0;	0,0
797,7382202148438;	202,0;	0,0;	0,0
797,831298828125;	200,25;	0,0;	0,0
797,9244995117188;	207,25;	0,0;	0,0
798,017578125;	196,25;	0,0;	0,0
798,110595703125;	198,5;	0,0;	0,0
798,20361328125;	191,5;	0,0;	0,0
798,2965698242188;	205,5;	0,0;	0,0
798,3895874023438;	203,5;	0,0;	0,0
798,4826049804688;	199,5;	0,0;	0,0
798,5756225585938;	201,75;	0,0;	0,0
798,6685180664062;	194,25;	0,0;	0,0
798,7614135742188;	198,25;	0,0;	0,0
798,8543090820312;	202,25;	0,0;	0,0
798,9471435546875;	195,25;	0,0;	0,0
799,0400390625;	192,25;	0,0;	0,0
799,1328735351562;	201,5;	0,0;	0,0
799,2256469726562;	190,5;	0,0;	0,0
799,3184204101562;	186,0;	0,0;	0,0
799,4111938476562;	197,0;	0,0;	0,0
799,5038452148438;	204,0;	0,0;	0,0
799,5966186523438;	196,25;	0,0;	0,0
799,6892700195312;	193,25;	0,0;	0,0
799,781982421875;	194,0;	0,0;	0,0
799,8746337890625;	201,0;	0,0;	0,0
799,9672241210938;	201,5;	0,0;	0,0
800,059814453125;	203,5;	0,0;	0,0
800,1524047851562;	200,0;	0,0;	0,0
800,2449340820312;	208,0;	0,0;	0,0
800,3375244140625;	212,0;	0,0;	0,0
800,4300537109375;	205,75;	0,0;	0,0
800,5224609375;	200,75;	0,0;	0,0
800,614990234375;	210,5;	0,0;	0,0
800,7073364257812;	201,0;	0,0;	0,0
800,7998046875;	206,0;	0,0;	0,0
800,8922729492188;	204,25;	0,0;	0,0
800,984619140625;	195,75;	0,0;	0,0
801,076904296875;	196,75;	0,0;	0,0
801,1693115234375;	192,0;	0,0;	0,0
801,2615966796875;	196,0;	0,0;	0,0
801,3538818359375;	200,5;	0,0;	0,0
801,4461669921875;	202,25;	0,0;	0,0
801,5384521484375;	212,25;	0,0;	0,0
801,630615234375;	197,5;	0,0;	0,0
801,7227783203125;	200,5;	0,0;	0,0
801,8150024414062;	185,75;	0,0;	0,0
801,9071655273438;	193,5;	0,0;	0,0
801,999267578125;	204,0;	0,0;	0,0
802,0913696289062;	194,25;	0,0;	0,0
802,1835327148438;	195,75;	0,0;	0,0
802,2755737304688;	195,25;	0,0;	0,0
802,3676147460938;	190,25;	0,0;	0,0
802,4595947265625;	203,0;	0,0;	0,0
802,5516357421875;	197,0;	0,0;	0,0
802,6436157226562;	185,25;	0,0;	0,0
802,735595703125;	196,0;	0,0;	0,0
802,8275146484375;	196,0;	0,0;	0,0
802,91943359375;	190,0;	0,0;	0,0
803,0113525390625;	190,0;	0,0;	0,0
803,1031494140625;	194,0;	0,0;	0,0
803,195068359375;	199,5;	0,0;	0,0
803,286865234375;	200,0;	0,0;	0,0
803,378662109375;	201,5;	0,0;	0,0
803,4703979492188;	196,5;	0,0;	0,0
803,5621948242188;	188,5;	0,0;	0,0
803,6539306640625;	199,75;	0,0;	0,0
803,74560546875;	198,0;	0,0;	0,0
803,8373413085938;	192,25;	0,0;	0,0
803,928955078125;	189,75;	0,0;	0,0
804,0206298828125;	189,25;	0,0;	0,0
804,1122436523438;	197,25;	0,0;	0,0
804,2037963867188;	203,5;	0,0;	0,0
804,29541015625;	189,5;	0,0;	0,0
804,3870239257812;	204,75;	0,0;	0,0
804,4785766601562;	192,0;	0,0;	0,0
804,5699462890625;	188,5;	0,0;	0,0
804,6614990234375;	179,75;	0,0;	0,0
804,7529907226562;	187,75;	0,0;	0,0
804,8444213867188;	196,75;	0,0;	0,0
804,9358520507812;	185,5;	0,0;	0,0
805,0272216796875;	179,75;	0,0;	0,0
805,11865234375;	191,75;	0,0;	0,0
805,2099609375;	181,25;	0,0;	0,0
805,3013305664062;	187,75;	0,0;	0,0
805,392578125;	184,25;	0,0;	0,0
805,48388671875;	184,75;	0,0;	0,0
805,5751953125;	185,25;	0,0;	0,0
805,6664428710938;	179,5;	0,0;	0,0
805,757568359375;	188,25;	0,0;	0,0
805,8488159179688;	194,0;	0,0;	0,0
805,9400024414062;	182,75;	0,0;	0,0
806,0311889648438;	194,5;	0,0;	0,0
806,122314453125;	186,75;	0,0;	0,0
806,2134399414062;	199,5;	0,0;	0,0
806,3045043945312;	202,0;	0,0;	0,0
806,3955688476562;	197,25;	0,0;	0,0
806,4866333007812;	190,25;	0,0;	0,0
806,5775756835938;	182,75;	0,0;	0,0
806,6686401367188;	183,75;	0,0;	0,0
806,7596435546875;	191,0;	0,0;	0,0
806,8505859375;	178,5;	0,0;	0,0
806,9415283203125;	187,5;	0,0;	0,0
807,0324096679688;	208,75;	0,0;	0,0
807,1232299804688;	187,75;	0,0;	0,0
807,2141723632812;	195,0;	0,0;	0,0
807,3049926757812;	200,75;	0,0;	0,0
807,3958740234375;	193,25;	0,0;	0,0
807,486572265625;	198,25;	0,0;	0,0
807,577392578125;	180,25;	0,0;	0,0
807,6681518554688;	197,0;	0,0;	0,0
807,7588500976562;	197,25;	0,0;	0,0
807,8495483398438;	195,5;	0,0;	0,0
807,9403076171875;	196,5;	0,0;	0,0
808,0309448242188;	190,0;	0,0;	0,0
808,1215209960938;	202,0;	0,0;	0,0
808,212158203125;	191,5;	0,0;	0,0
808,302734375;	195,25;	0,0;	0,0
808,393310546875;	205,25;	0,0;	0,0
808,48388671875;	188,0;	0,0;	0,0
808,574462890625;	201,0;	0,0;	0,0
808,6649169921875;	205,25;	0,0;	0,0
808,7554321289062;	197,5;	0,0;	0,0
808,8458862304688;	199,5;	0,0;	0,0
808,936279296875;	194,5;	0,0;	0,0
809,0267333984375;	199,0;	0,0;	0,0
809,1171264648438;	201,5;	0,0;	0,0
809,2074584960938;	175,25;	0,0;	0,0
809,2977905273438;	194,75;	0,0;	0,0
809,38818359375;	200,25;	0,0;	0,0
809,4784545898438;	187,5;	0,0;	0,0
809,5687255859375;	193,25;	0,0;	0,0
809,6589965820312;	183,5;	0,0;	0,0
809,749267578125;	192,75;	0,0;	0,0
809,8394165039062;	191,0;	0,0;	0,0
809,9296875;	187,25;	0,0;	0,0
810,019775390625;	192,5;	0,0;	0,0
810,1099243164062;	189,25;	0,0;	0,0
810,2000732421875;	198,75;	0,0;	0,0
810,2902221679688;	200,5;	0,0;	0,0
810,3802490234375;	203,5;	0,0;	0,0
810,4703369140625;	198,25;	0,0;	0,0
810,5603637695312;	190,5;	0,0;	0,0
810,6503295898438;	186,75;	0,0;	0,0
810,7403564453125;	194,25;	0,0;	0,0
810,8303833007812;	192,25;	0,0;	0,0
810,9202880859375;	196,0;	0,0;	0,0
811,0101928710938;	193,25;	0,0;	0,0
811,10009765625;	188,75;	0,0;	0,0
811,18994140625;	211,0;	0,0;	0,0
811,27978515625;	197,0;	0,0;	0,0
811,3696899414062;	204,0;	0,0;	0,0
811,4595336914062;	230,0;	0,0;	0,0
811,5491943359375;	209,25;	0,0;	0,0
811,6390380859375;	226,0;	0,0;	0,0
811,7286987304688;	221,5;	0,0;	0,0
811,8184204101562;	207,5;	0,0;	0,0
811,908203125;	202,0;	0,0;	0,0
811,9978637695312;	198,5;	0,0;	0,0
812,0874633789062;	199,5;	0,0;	0,0
812,1771240234375;	221,25;	0,0;	0,0
812,2667846679688;	212,75;	0,0;	0,0
812,3562622070312;	228,0;	0,0;	0,0
812,4458618164062;	289,25;	0,0;	0,0
812,535400390625;	420,75;	0,0;	0,0
812,6249389648438;	415,5;	0,0;	0,0
812,7144165039062;	284,75;	0,0;	0,0
812,8038940429688;	222,0;	0,0;	0,0
812,893310546875;	207,0;	0,0;	0,0
812,9827880859375;	210,75;	0,0;	0,0
813,0722045898438;	200,25;	0,0;	0,0
813,1615600585938;	200,75;	0,0;	0,0
813,2508544921875;	193,5;	0,0;	0,0
813,3402709960938;	198,0;	0,0;	0,0
813,4295654296875;	199,75;	0,0;	0,0
813,518798828125;	196,5;	0,0;	0,0
813,6080932617188;	193,75;	0,0;	0,0
813,6973876953125;	194,25;	0,0;	0,0
813,78662109375;	199,0;	0,0;	0,0
813,8757934570312;	201,75;	0,0;	0,0
813,9649658203125;	198,75;	0,0;	0,0
814,0540771484375;	194,75;	0,0;	0,0
814,1431884765625;	199,5;	0,0;	0,0
814,2323608398438;	206,5;	0,0;	0,0
814,3214721679688;	192,25;	0,0;	0,0
814,4104614257812;	175,75;	0,0;	0,0
814,4995727539062;	203,75;	0,0;	0,0
814,5885620117188;	203,25;	0,0;	0,0
814,6775512695312;	201,25;	0,0;	0,0
814,7665405273438;	184,0;	0,0;	0,0
814,8555297851562;	199,25;	0,0;	0,0
814,9443969726562;	199,75;	0,0;	0,0
815,0333251953125;	190,5;	0,0;	0,0
815,1221923828125;	194,0;	0,0;	0,0
815,2110595703125;	202,5;	0,0;	0,0
815,2999267578125;	201,5;	0,0;	0,0
815,3887329101562;	195,75;	0,0;	0,0
815,4775390625;	202,75;	0,0;	0,0
815,5662231445312;	195,0;	0,0;	0,0
815,6550903320312;	203,25;	0,0;	0,0
815,7437133789062;	196,25;	0,0;	0,0
815,8323974609375;	186,75;	0,0;	0,0
815,921142578125;	199,25;	0,0;	0,0
816,0098266601562;	204,0;	0,0;	0,0
816,0984497070312;	206,5;	0,0;	0,0
816,18701171875;	207,5;	0,0;	0,0
816,275634765625;	209,25;	0,0;	0,0
816,3641967773438;	214,5;	0,0;	0,0
816,4526977539062;	202,5;	0,0;	0,0
816,541259765625;	214,75;	0,0;	0,0
816,6297607421875;	199,25;	0,0;	0,0
816,7182006835938;	200,0;	0,0;	0,0
816,8067016601562;	211,75;	0,0;	0,0
816,8950805664062;	203,25;	0,0;	0,0
816,9834594726562;	212,25;	0,0;	0,0
817,0718994140625;	204,5;	0,0;	0,0
817,1602783203125;	225,5;	0,0;	0,0
817,24853515625;	221,75;	0,0;	0,0
817,3369140625;	214,0;	0,0;	0,0
817,4251708984375;	230,5;	0,0;	0,0
817,5134887695312;	235,25;	0,0;	0,0
817,6017456054688;	222,25;	0,0;	0,0
817,68994140625;	236,25;	0,0;	0,0
817,7781372070312;	242,0;	0,0;	0,0
817,8663330078125;	241,75;	0,0;	0,0
817,9544677734375;	257,5;	0,0;	0,0
818,0426025390625;	291,5;	0,0;	0,0
818,1307373046875;	332,0;	0,0;	0,0
818,2188110351562;	401,5;	0,0;	0,0
818,306884765625;	519,75;	0,0;	0,0
818,3948974609375;	644,75;	0,0;	0,0
818,48291015625;	690,25;	0,0;	0,0
818,5709228515625;	660,0;	0,0;	0,0
818,658935546875;	652,25;	0,0;	0,0
818,746826171875;	732,75;	0,0;	0,0
818,8348388671875;	674,75;	0,0;	0,0
818,9226684570312;	534,5;	0,0;	0,0
819,0106201171875;	447,5;	0,0;	0,0
819,0984497070312;	381,0;	0,0;	0,0
819,186279296875;	337,25;	0,0;	0,0
819,2741088867188;	353,25;	0,0;	0,0
819,3619384765625;	428,75;	0,0;	0,0
819,44970703125;	435,25;	0,0;	0,0
819,537353515625;	353,5;	0,0;	0,0
819,6251220703125;	306,0;	0,0;	0,0
819,7127685546875;	285,5;	0,0;	0,0
819,8004760742188;	317,25;	0,0;	0,0
819,88818359375;	309,0;	0,0;	0,0
819,9757690429688;	346,25;	0,0;	0,0
820,0633544921875;	332,0;	0,0;	0,0
820,1509399414062;	321,75;	0,0;	0,0
820,2384643554688;	294,5;	0,0;	0,0
820,3260498046875;	277,0;	0,0;	0,0
820,4136352539062;	279,0;	0,0;	0,0
820,5010986328125;	278,0;	0,0;	0,0
820,5885620117188;	289,25;	0,0;	0,0
820,676025390625;	305,25;	0,0;	0,0
820,763427734375;	316,0;	0,0;	0,0
820,850830078125;	363,0;	0,0;	0,0
820,938232421875;	408,5;	0,0;	0,0
821,025634765625;	488,0;	0,0;	0,0
821,1129760742188;	498,0;	0,0;	0,0
821,2001953125;	461,0;	0,0;	0,0
821,2875366210938;	493,0;	0,0;	0,0
821,3748168945312;	586,75;	0,0;	0,0
821,4620361328125;	774,0;	0,0;	0,0
821,5492553710938;	1135,0;	0,0;	0,0
821,6365356445312;	1211,0;	0,0;	0,0
821,7236328125;	982,0;	0,0;	0,0
821,810791015625;	766,75;	0,0;	0,0
821,89794921875;	604,0;	0,0;	0,0
821,9850463867188;	561,5;	0,0;	0,0
822,0720825195312;	577,0;	0,0;	0,0
822,1591796875;	634,0;	0,0;	0,0
822,2462768554688;	755,75;	0,0;	0,0
822,333251953125;	772,0;	0,0;	0,0
822,4202270507812;	628,25;	0,0;	0,0
822,5072021484375;	514,5;	0,0;	0,0
822,5941162109375;	428,5;	0,0;	0,0
822,6810913085938;	386,75;	0,0;	0,0
822,7680053710938;	377,5;	0,0;	0,0
822,8547973632812;	366,0;	0,0;	0,0
822,9417114257812;	360,75;	0,0;	0,0
823,0285034179688;	337,75;	0,0;	0,0
823,1152954101562;	352,25;	0,0;	0,0
823,2021484375;	324,75;	0,0;	0,0
823,2888793945312;	325,0;	0,0;	0,0
823,3756103515625;	323,75;	0,0;	0,0
823,4623413085938;	293,75;	0,0;	0,0
823,5490112304688;	277,0;	0,0;	0,0
823,6356811523438;	296,75;	0,0;	0,0
823,7223510742188;	290,0;	0,0;	0,0
823,8090209960938;	297,75;	0,0;	0,0
823,8956298828125;	343,25;	0,0;	0,0
823,982177734375;	376,0;	0,0;	0,0
824,0687255859375;	460,75;	0,0;	0,0
824,1552124023438;	593,5;	0,0;	0,0
824,24169921875;	644,75;	0,0;	0,0
824,3283081054688;	578,5;	0,0;	0,0
824,4147338867188;	459,5;	0,0;	0,0
824,5010986328125;	401,25;	0,0;	0,0
824,5875854492188;	376,25;	0,0;	0,0
824,6740112304688;	378,75;	0,0;	0,0
824,7603149414062;	322,25;	0,0;	0,0
824,8466796875;	291,75;	0,0;	0,0
824,9330444335938;	280,5;	0,0;	0,0
825,0193481445312;	281,5;	0,0;	0,0
825,1055908203125;	274,75;	0,0;	0,0
825,1918334960938;	265,0;	0,0;	0,0
825,2780151367188;	255,25;	0,0;	0,0
825,3642578125;	250,75;	0,0;	0,0
825,4505004882812;	233,75;	0,0;	0,0
825,5366821289062;	175,75;	0,0;	0,0
825,622802734375;	162,0;	0,0;	0,0
825,7089233398438;	165,0;	0,0;	0,0
825,7949829101562;	174,25;	0,0;	0,0
825,881103515625;	156,75;	0,0;	0,0
825,9671630859375;	158,75;	0,0;	0,0
826,05322265625;	176,0;	0,0;	0,0
826,1392211914062;	167,0;	0,0;	0,0
826,22509765625;	169,5;	0,0;	0,0
826,31103515625;	171,75;	0,0;	0,0
826,3970336914062;	168,25;	0,0;	0,0
826,4829711914062;	172,0;	0,0;	0,0
826,56884765625;	169,5;	0,0;	0,0
826,65478515625;	156,75;	0,0;	0,0
826,7405395507812;	167,25;	0,0;	0,0
826,826416015625;	0,0;	0,0;	0,0
